July 24, 2026   16:07:43
Probe Approach Curve
File: 20260724_pac_positive_pt side_ptume 0.18_1
Data Source:  Experiment
Instrument Model:  CHI920D
Header: 
Note: 

Probe E (V) = 0.45
Sensitivity (A/V) = 1e-9
End Current Ratio (%) = 25
Max Incr (um) = 1
Withdraw Dist (um) = 50
Quiet Time (sec) = 2

Distance/um, Current/A

-49.100, 1.956e-9
-48.100, 1.952e-9
-47.100, 1.951e-9
-46.100, 1.951e-9
-45.100, 1.950e-9
-44.100, 1.947e-9
-43.100, 1.949e-9
-42.100, 1.945e-9
-41.100, 1.945e-9
-40.100, 1.945e-9
-39.100, 1.942e-9
-38.100, 1.944e-9
-37.100, 1.941e-9
-36.100, 1.940e-9
-35.100, 1.941e-9
-34.100, 1.937e-9
-33.100, 1.939e-9
-32.100, 1.937e-9
-31.100, 1.936e-9
-30.100, 1.937e-9
-29.100, 1.934e-9
-28.100, 1.936e-9
-27.100, 1.934e-9
-26.100, 1.932e-9
-25.100, 1.934e-9
-24.100, 1.931e-9
-23.100, 1.932e-9
-22.100, 1.931e-9
-21.100, 1.929e-9
-20.100, 1.931e-9
-19.100, 1.928e-9
-18.100, 1.929e-9
-17.100, 1.929e-9
-16.100, 1.926e-9
-15.100, 1.928e-9
-14.100, 1.925e-9
-13.100, 1.926e-9
-12.100, 1.926e-9
-11.100, 1.924e-9
-10.100, 1.926e-9
-9.100, 1.923e-9
-8.100, 1.924e-9
-7.100, 1.924e-9
-6.100, 1.921e-9
-5.100, 1.924e-9
-4.100, 1.921e-9
-3.100, 1.922e-9
-2.100, 1.921e-9
-1.100, 1.919e-9
-0.100, 1.922e-9
0.900, 1.919e-9
1.900, 1.920e-9
2.900, 1.920e-9
3.900, 1.917e-9
4.900, 1.920e-9
5.900, 1.918e-9
6.900, 1.918e-9
7.900, 1.918e-9
8.900, 1.915e-9
9.900, 1.918e-9
10.900, 1.916e-9
11.900, 1.916e-9
12.900, 1.916e-9
13.900, 1.914e-9
14.900, 1.916e-9
15.900, 1.914e-9
16.900, 1.914e-9
17.900, 1.915e-9
18.900, 1.912e-9
19.900, 1.914e-9
20.900, 1.913e-9
21.900, 1.911e-9
22.900, 1.913e-9
23.900, 1.911e-9
24.900, 1.912e-9
25.900, 1.912e-9
26.900, 1.910e-9
27.900, 1.912e-9
28.900, 1.910e-9
29.900, 1.911e-9
30.900, 1.911e-9
31.900, 1.909e-9
32.900, 1.911e-9
33.900, 1.909e-9
34.900, 1.909e-9
35.900, 1.910e-9
36.900, 1.907e-9
37.900, 1.910e-9
38.900, 1.908e-9
39.900, 1.908e-9
40.900, 1.909e-9
41.900, 1.906e-9
42.900, 1.909e-9
43.900, 1.907e-9
44.900, 1.907e-9
45.900, 1.908e-9
46.900, 1.905e-9
47.900, 1.908e-9
48.900, 1.906e-9
49.900, 1.906e-9
50.900, 1.907e-9
51.900, 1.905e-9
52.900, 1.905e-9
53.900, 1.907e-9
54.900, 1.904e-9
55.900, 1.906e-9
56.900, 1.904e-9
57.900, 1.904e-9
58.900, 1.906e-9
59.900, 1.902e-9
60.900, 1.904e-9
61.900, 1.904e-9
62.900, 1.902e-9
63.900, 1.905e-9
64.900, 1.902e-9
65.900, 1.903e-9
66.900, 1.903e-9
67.900, 1.901e-9
68.900, 1.904e-9
69.900, 1.901e-9
70.900, 1.902e-9
71.900, 1.903e-9
72.900, 1.900e-9
73.900, 1.903e-9
74.900, 1.900e-9
75.900, 1.901e-9
76.900, 1.902e-9
77.900, 1.899e-9
78.900, 1.902e-9
79.900, 1.900e-9
80.900, 1.900e-9
81.900, 1.901e-9
82.900, 1.898e-9
83.900, 1.900e-9
84.900, 1.900e-9
85.900, 1.898e-9
86.900, 1.901e-9
87.900, 1.898e-9
88.900, 1.899e-9
89.900, 1.900e-9
90.900, 1.897e-9
91.900, 1.900e-9
92.900, 1.897e-9
93.900, 1.898e-9
94.900, 1.899e-9
95.900, 1.896e-9
96.900, 1.899e-9
97.900, 1.897e-9
98.900, 1.897e-9
99.900, 1.898e-9
100.900, 1.896e-9
101.900, 1.898e-9
102.900, 1.898e-9
103.900, 1.895e-9
104.900, 1.898e-9
105.900, 1.896e-9
106.900, 1.896e-9
107.900, 1.897e-9
108.900, 1.894e-9
109.900, 1.897e-9
110.900, 1.895e-9
111.900, 1.895e-9
112.900, 1.897e-9
113.900, 1.894e-9
114.900, 1.896e-9
115.900, 1.895e-9
116.900, 1.894e-9
117.900, 1.896e-9
118.900, 1.893e-9
119.900, 1.895e-9
120.900, 1.895e-9
121.900, 1.893e-9
122.900, 1.895e-9
123.900, 1.892e-9
124.900, 1.894e-9
125.900, 1.894e-9
126.900, 1.893e-9
127.900, 1.895e-9
128.900, 1.892e-9
129.900, 1.894e-9
130.900, 1.893e-9
131.900, 1.892e-9
132.900, 1.894e-9
133.900, 1.892e-9
134.900, 1.893e-9
135.900, 1.893e-9
136.900, 1.891e-9
137.900, 1.894e-9
138.900, 1.891e-9
139.900, 1.892e-9
140.900, 1.893e-9
141.900, 1.890e-9
142.900, 1.893e-9
143.900, 1.891e-9
144.900, 1.891e-9
145.900, 1.893e-9
146.900, 1.890e-9
147.900, 1.892e-9
148.900, 1.891e-9
149.900, 1.890e-9
150.900, 1.892e-9
151.900, 1.889e-9
152.900, 1.891e-9
153.900, 1.891e-9
154.900, 1.889e-9
155.900, 1.892e-9
156.900, 1.889e-9
157.900, 1.890e-9
158.900, 1.890e-9
159.900, 1.888e-9
160.900, 1.891e-9
161.900, 1.888e-9
162.900, 1.890e-9
163.900, 1.890e-9
164.900, 1.888e-9
165.900, 1.891e-9
166.900, 1.888e-9
167.900, 1.889e-9
168.900, 1.890e-9
169.900, 1.887e-9
170.900, 1.890e-9
171.900, 1.888e-9
172.900, 1.888e-9
173.900, 1.889e-9
174.900, 1.887e-9
175.900, 1.889e-9
176.900, 1.888e-9
177.900, 1.886e-9
178.900, 1.889e-9
179.900, 1.887e-9
180.900, 1.887e-9
181.900, 1.888e-9
182.900, 1.886e-9
183.900, 1.888e-9
184.900, 1.886e-9
185.900, 1.887e-9
186.900, 1.888e-9
187.900, 1.885e-9
188.900, 1.888e-9
189.900, 1.886e-9
190.900, 1.886e-9
191.900, 1.888e-9
192.900, 1.885e-9
193.900, 1.887e-9
194.900, 1.886e-9
195.900, 1.885e-9
196.900, 1.887e-9
197.900, 1.884e-9
198.900, 1.886e-9
199.900, 1.885e-9
200.900, 1.885e-9
201.900, 1.884e-9
202.900, 1.886e-9
203.900, 1.884e-9
204.900, 1.886e-9
205.900, 1.885e-9
206.900, 1.884e-9
207.900, 1.886e-9
208.900, 1.883e-9
209.900, 1.886e-9
210.900, 1.884e-9
211.900, 1.884e-9
212.900, 1.885e-9
213.900, 1.883e-9
214.900, 1.885e-9
215.900, 1.883e-9
216.900, 1.884e-9
217.900, 1.885e-9
218.900, 1.882e-9
219.900, 1.885e-9
220.900, 1.883e-9
221.900, 1.883e-9
222.900, 1.885e-9
223.900, 1.882e-9
224.900, 1.884e-9
225.900, 1.883e-9
226.900, 1.882e-9
227.900, 1.884e-9
228.900, 1.881e-9
229.900, 1.884e-9
230.900, 1.882e-9
231.900, 1.881e-9
232.900, 1.884e-9
233.900, 1.881e-9
234.900, 1.883e-9
235.900, 1.882e-9
236.900, 1.881e-9
237.900, 1.884e-9
238.900, 1.881e-9
239.900, 1.882e-9
240.900, 1.882e-9
241.900, 1.880e-9
242.900, 1.883e-9
243.900, 1.881e-9
244.900, 1.881e-9
245.900, 1.882e-9
246.900, 1.880e-9
247.900, 1.883e-9
248.900, 1.881e-9
249.900, 1.880e-9
250.900, 1.882e-9
251.900, 1.879e-9
252.900, 1.882e-9
253.900, 1.880e-9
254.900, 1.880e-9
255.900, 1.882e-9
256.900, 1.879e-9
257.900, 1.881e-9
258.900, 1.880e-9
259.900, 1.879e-9
260.900, 1.882e-9
261.900, 1.879e-9
262.900, 1.880e-9
263.900, 1.880e-9
264.900, 1.879e-9
265.900, 1.881e-9
266.900, 1.878e-9
267.900, 1.880e-9
268.900, 1.880e-9
269.900, 1.878e-9
270.900, 1.880e-9
271.900, 1.879e-9
272.900, 1.878e-9
273.900, 1.880e-9
274.900, 1.877e-9
275.900, 1.880e-9
276.900, 1.879e-9
277.900, 1.878e-9
278.900, 1.880e-9
279.900, 1.877e-9
280.900, 1.879e-9
281.900, 1.879e-9
282.900, 1.877e-9
283.900, 1.880e-9
284.900, 1.877e-9
285.900, 1.878e-9
286.900, 1.879e-9
287.900, 1.876e-9
288.900, 1.879e-9
289.900, 1.878e-9
290.900, 1.877e-9
291.900, 1.879e-9
292.900, 1.876e-9
293.900, 1.879e-9
294.900, 1.878e-9
295.900, 1.877e-9
296.900, 1.879e-9
297.900, 1.876e-9
298.900, 1.878e-9
299.900, 1.878e-9
300.900, 1.876e-9
301.900, 1.879e-9
302.900, 1.876e-9
303.900, 1.877e-9
304.900, 1.877e-9
305.900, 1.876e-9
306.900, 1.878e-9
307.900, 1.876e-9
308.900, 1.876e-9
309.900, 1.878e-9
310.900, 1.875e-9
311.900, 1.878e-9
312.900, 1.876e-9
313.900, 1.876e-9
314.900, 1.877e-9
315.900, 1.874e-9
316.900, 1.877e-9
317.900, 1.876e-9
318.900, 1.874e-9
319.900, 1.877e-9
320.900, 1.874e-9
321.900, 1.876e-9
322.900, 1.876e-9
323.900, 1.874e-9
324.900, 1.877e-9
325.900, 1.874e-9
326.900, 1.875e-9
327.900, 1.876e-9
328.900, 1.873e-9
329.900, 1.876e-9
330.900, 1.874e-9
331.900, 1.874e-9
332.900, 1.876e-9
333.900, 1.873e-9
334.900, 1.876e-9
335.900, 1.874e-9
336.900, 1.874e-9
337.900, 1.876e-9
338.900, 1.873e-9
339.900, 1.875e-9
340.900, 1.875e-9
341.900, 1.873e-9
342.900, 1.876e-9
343.900, 1.873e-9
344.900, 1.875e-9
345.900, 1.875e-9
346.900, 1.873e-9
347.900, 1.876e-9
348.900, 1.873e-9
349.900, 1.874e-9
350.900, 1.875e-9
351.900, 1.872e-9
352.900, 1.875e-9
353.900, 1.873e-9
354.900, 1.873e-9
355.900, 1.875e-9
356.900, 1.872e-9
357.900, 1.875e-9
358.900, 1.873e-9
359.900, 1.873e-9
360.900, 1.875e-9
361.900, 1.872e-9
362.900, 1.874e-9
363.900, 1.873e-9
364.900, 1.872e-9
365.900, 1.874e-9
366.900, 1.872e-9
367.900, 1.874e-9
368.900, 1.874e-9
369.900, 1.872e-9
370.900, 1.874e-9
371.900, 1.871e-9
372.900, 1.872e-9
373.900, 1.873e-9
374.900, 1.871e-9
375.900, 1.874e-9
376.900, 1.871e-9
377.900, 1.872e-9
378.900, 1.873e-9
379.900, 1.871e-9
380.900, 1.873e-9
381.900, 1.871e-9
382.900, 1.872e-9
383.900, 1.873e-9
384.900, 1.870e-9
385.900, 1.873e-9
386.900, 1.871e-9
387.900, 1.871e-9
388.900, 1.872e-9
389.900, 1.870e-9
390.900, 1.873e-9
391.900, 1.871e-9
392.900, 1.871e-9
393.900, 1.872e-9
394.900, 1.870e-9
395.900, 1.873e-9
396.900, 1.870e-9
397.900, 1.871e-9
398.900, 1.872e-9
399.900, 1.870e-9
400.900, 1.872e-9
401.900, 1.870e-9
402.900, 1.870e-9
403.900, 1.870e-9
404.900, 1.872e-9
405.900, 1.869e-9
406.900, 1.872e-9
407.900, 1.872e-9
408.900, 1.870e-9
409.900, 1.872e-9
410.900, 1.869e-9
411.900, 1.869e-9
412.900, 1.870e-9
413.900, 1.868e-9
414.900, 1.871e-9
415.900, 1.869e-9
416.900, 1.869e-9
417.900, 1.871e-9
418.900, 1.868e-9
419.900, 1.871e-9
420.900, 1.869e-9
421.900, 1.869e-9
422.900, 1.871e-9
423.900, 1.868e-9
424.900, 1.870e-9
425.900, 1.869e-9
426.900, 1.869e-9
427.900, 1.870e-9
428.900, 1.867e-9
429.900, 1.870e-9
430.900, 1.869e-9
431.900, 1.868e-9
432.900, 1.870e-9
433.900, 1.867e-9
434.900, 1.870e-9
435.900, 1.868e-9
436.900, 1.868e-9
437.900, 1.870e-9
438.900, 1.867e-9
439.900, 1.869e-9
440.900, 1.869e-9
441.900, 1.868e-9
442.900, 1.870e-9
443.900, 1.867e-9
444.900, 1.869e-9
445.900, 1.868e-9
446.900, 1.867e-9
447.900, 1.870e-9
448.900, 1.867e-9
449.900, 1.869e-9
450.900, 1.868e-9
451.900, 1.867e-9
452.900, 1.869e-9
453.900, 1.866e-9
454.900, 1.869e-9
455.900, 1.868e-9
456.900, 1.867e-9
457.900, 1.869e-9
458.900, 1.866e-9
459.900, 1.868e-9
460.900, 1.868e-9
461.900, 1.866e-9
462.900, 1.869e-9
463.900, 1.866e-9
464.900, 1.868e-9
465.900, 1.867e-9
466.900, 1.866e-9
467.900, 1.868e-9
468.900, 1.866e-9
469.900, 1.868e-9
470.900, 1.867e-9
471.900, 1.866e-9
472.900, 1.868e-9
473.900, 1.865e-9
474.900, 1.867e-9
475.900, 1.867e-9
476.900, 1.866e-9
477.900, 1.868e-9
478.900, 1.865e-9
479.900, 1.867e-9
480.900, 1.866e-9
481.900, 1.866e-9
482.900, 1.867e-9
483.900, 1.865e-9
484.900, 1.867e-9
485.900, 1.866e-9
486.900, 1.866e-9
487.900, 1.867e-9
488.900, 1.864e-9
489.900, 1.867e-9
490.900, 1.865e-9
491.900, 1.865e-9
492.900, 1.867e-9
493.900, 1.864e-9
494.900, 1.867e-9
495.900, 1.866e-9
496.900, 1.865e-9
497.900, 1.867e-9
498.900, 1.864e-9
499.900, 1.866e-9
500.900, 1.866e-9
501.900, 1.864e-9
502.900, 1.867e-9
503.900, 1.864e-9
504.900, 1.865e-9
505.900, 1.866e-9
506.900, 1.864e-9
507.900, 1.867e-9
508.900, 1.864e-9
509.900, 1.865e-9
510.900, 1.866e-9
511.900, 1.864e-9
512.900, 1.866e-9
513.900, 1.864e-9
514.900, 1.865e-9
515.900, 1.866e-9
516.900, 1.863e-9
517.900, 1.866e-9
518.900, 1.864e-9
519.900, 1.864e-9
520.900, 1.866e-9
521.900, 1.863e-9
522.900, 1.866e-9
523.900, 1.864e-9
524.900, 1.864e-9
525.900, 1.866e-9
526.900, 1.863e-9
527.900, 1.866e-9
528.900, 1.864e-9
529.900, 1.864e-9
530.900, 1.866e-9
531.900, 1.863e-9
532.900, 1.865e-9
533.900, 1.865e-9
534.900, 1.863e-9
535.900, 1.866e-9
536.900, 1.863e-9
537.900, 1.865e-9
538.900, 1.865e-9
539.900, 1.863e-9
540.900, 1.866e-9
541.900, 1.864e-9
542.900, 1.864e-9
543.900, 1.865e-9
544.900, 1.863e-9
545.900, 1.865e-9
546.900, 1.864e-9
547.900, 1.863e-9
548.900, 1.866e-9
549.900, 1.863e-9
550.900, 1.865e-9
551.900, 1.864e-9
552.900, 1.863e-9
553.900, 1.866e-9
554.900, 1.863e-9
555.900, 1.865e-9
556.900, 1.865e-9
557.900, 1.863e-9
558.900, 1.866e-9
559.900, 1.863e-9
560.900, 1.865e-9
561.900, 1.865e-9
562.900, 1.863e-9
563.900, 1.866e-9
564.900, 1.864e-9
565.900, 1.865e-9
566.900, 1.865e-9
567.900, 1.864e-9
568.900, 1.867e-9
569.900, 1.864e-9
570.900, 1.865e-9
571.900, 1.866e-9
572.900, 1.864e-9
573.900, 1.867e-9
574.900, 1.865e-9
575.900, 1.866e-9
576.900, 1.867e-9
577.900, 1.865e-9
578.900, 1.868e-9
579.900, 1.866e-9
580.900, 1.866e-9
581.900, 1.869e-9
582.900, 1.866e-9
583.900, 1.868e-9
584.900, 1.868e-9
585.900, 1.867e-9
586.900, 1.870e-9
587.900, 1.868e-9
588.900, 1.870e-9
589.900, 1.870e-9
590.900, 1.869e-9
591.900, 1.872e-9
592.900, 1.870e-9
593.900, 1.872e-9
594.900, 1.873e-9
595.900, 1.872e-9
596.900, 1.875e-9
597.900, 1.873e-9
598.900, 1.875e-9
599.900, 1.877e-9
600.900, 1.875e-9
601.900, 1.879e-9
602.900, 1.878e-9
603.900, 1.880e-9
604.900, 1.883e-9
605.900, 1.881e-9
606.900, 1.885e-9
607.900, 1.886e-9
608.900, 1.887e-9
609.900, 1.891e-9
610.900, 1.890e-9
611.900, 1.895e-9
612.900, 1.897e-9
613.900, 1.898e-9
614.900, 1.904e-9
615.900, 1.905e-9
616.900, 1.911e-9
617.900, 1.914e-9
618.900, 1.918e-9
619.900, 1.926e-9
620.900, 1.929e-9
621.900, 1.938e-9
622.900, 1.945e-9
623.900, 1.952e-9
624.900, 1.965e-9
625.900, 1.973e-9
626.900, 1.990e-9
627.900, 2.004e-9
628.900, 2.034e-9
629.900, 2.051e-9
630.900, 2.077e-9
631.900, 2.104e-9
632.900, 2.144e-9
633.900, 2.190e-9
634.238, 2.247e-9
634.413, 2.314e-9
634.418, 2.357e-9
634.424, 2.384e-9
634.448, 2.394e-9
634.515, 2.399e-9
634.594, 2.409e-9
634.629, 2.415e-9
634.670, 2.424e-9
634.682, 2.429e-9
634.699, 2.432e-9
634.721, 2.437e-9
634.740, 2.437e-9
634.764, 2.441e-9
634.786, 2.442e-9
634.791, 2.444e-9
634.796, 2.448e-9
