May 26, 2026   14:20:30
Probe Approach Curve
File: c:\users\secm-account\desktop\data\katarina\20260526\pacs_glass_4.txt
Data Source:  Experiment
Instrument Model:  CHI920D
Header: 
Note: 

Probe E (V) = 0.4
Sensitivity (A/V) = 1e-9
End Current Ratio (%) = 5
Max Incr (um) = 1
Withdraw Dist (um) = 50
Quiet Time (sec) = 2

Distance/um, Current/A

-49.100, -2.013e-9
-48.100, -2.004e-9
-47.100, -1.997e-9
-46.100, -1.992e-9
-45.100, -1.985e-9
-44.100, -1.980e-9
-43.100, -1.974e-9
-42.100, -1.969e-9
-41.100, -1.965e-9
-40.100, -1.959e-9
-39.100, -1.955e-9
-38.100, -1.950e-9
-37.100, -1.945e-9
-36.100, -1.941e-9
-35.100, -1.936e-9
-34.100, -1.933e-9
-33.100, -1.929e-9
-32.100, -1.925e-9
-31.100, -1.922e-9
-30.100, -1.918e-9
-29.100, -1.915e-9
-28.100, -1.912e-9
-27.100, -1.908e-9
-26.100, -1.906e-9
-25.100, -1.902e-9
-24.100, -1.899e-9
-23.100, -1.896e-9
-22.100, -1.893e-9
-21.100, -1.891e-9
-20.100, -1.888e-9
-19.100, -1.884e-9
-18.100, -1.882e-9
-17.100, -1.879e-9
-16.100, -1.878e-9
-15.100, -1.875e-9
-14.100, -1.872e-9
-13.100, -1.870e-9
-12.100, -1.867e-9
-11.100, -1.866e-9
-10.100, -1.864e-9
-9.100, -1.861e-9
-8.100, -1.860e-9
-7.100, -1.858e-9
-6.100, -1.856e-9
-5.100, -1.854e-9
-4.100, -1.852e-9
-3.100, -1.851e-9
-2.100, -1.849e-9
-1.100, -1.847e-9
-0.100, -1.846e-9
0.900, -1.844e-9
1.900, -1.843e-9
2.900, -1.840e-9
3.900, -1.839e-9
4.900, -1.838e-9
5.900, -1.835e-9
6.900, -1.835e-9
7.900, -1.833e-9
8.900, -1.832e-9
9.900, -1.831e-9
10.900, -1.829e-9
11.900, -1.828e-9
12.900, -1.826e-9
13.900, -1.825e-9
14.900, -1.824e-9
15.900, -1.822e-9
16.900, -1.821e-9
17.900, -1.820e-9
18.900, -1.818e-9
19.900, -1.818e-9
20.900, -1.816e-9
21.900, -1.815e-9
22.900, -1.814e-9
23.900, -1.812e-9
24.900, -1.812e-9
25.900, -1.811e-9
26.900, -1.809e-9
27.900, -1.809e-9
28.900, -1.807e-9
29.900, -1.807e-9
30.900, -1.805e-9
31.900, -1.804e-9
32.900, -1.804e-9
33.900, -1.802e-9
34.900, -1.801e-9
35.900, -1.801e-9
36.900, -1.799e-9
37.900, -1.798e-9
38.900, -1.798e-9
39.900, -1.796e-9
40.900, -1.795e-9
41.900, -1.794e-9
42.900, -1.793e-9
43.900, -1.792e-9
44.900, -1.791e-9
45.900, -1.790e-9
46.900, -1.789e-9
47.900, -1.788e-9
48.900, -1.788e-9
49.900, -1.786e-9
50.900, -1.786e-9
51.900, -1.785e-9
52.900, -1.784e-9
53.900, -1.783e-9
54.900, -1.782e-9
55.900, -1.781e-9
56.900, -1.781e-9
57.900, -1.780e-9
58.900, -1.780e-9
59.900, -1.779e-9
60.900, -1.778e-9
61.900, -1.778e-9
62.900, -1.777e-9
63.900, -1.776e-9
64.900, -1.776e-9
65.900, -1.775e-9
66.900, -1.775e-9
67.900, -1.774e-9
68.900, -1.773e-9
69.900, -1.773e-9
70.900, -1.771e-9
71.900, -1.771e-9
72.900, -1.770e-9
73.900, -1.770e-9
74.900, -1.770e-9
75.900, -1.769e-9
76.900, -1.768e-9
77.900, -1.768e-9
78.900, -1.767e-9
79.900, -1.767e-9
80.900, -1.767e-9
81.900, -1.765e-9
82.900, -1.765e-9
83.900, -1.763e-9
84.900, -1.763e-9
85.900, -1.763e-9
86.900, -1.762e-9
87.900, -1.762e-9
88.900, -1.760e-9
89.900, -1.761e-9
90.900, -1.760e-9
91.900, -1.759e-9
92.900, -1.759e-9
93.900, -1.758e-9
94.900, -1.758e-9
95.900, -1.758e-9
96.900, -1.757e-9
97.900, -1.757e-9
98.900, -1.756e-9
99.900, -1.756e-9
100.900, -1.756e-9
101.900, -1.755e-9
102.900, -1.755e-9
103.900, -1.755e-9
104.900, -1.753e-9
105.900, -1.753e-9
106.900, -1.752e-9
107.900, -1.751e-9
108.900, -1.751e-9
109.900, -1.750e-9
110.900, -1.750e-9
111.900, -1.750e-9
112.900, -1.749e-9
113.900, -1.750e-9
114.900, -1.748e-9
115.900, -1.748e-9
116.900, -1.748e-9
117.900, -1.746e-9
118.900, -1.747e-9
119.900, -1.746e-9
120.900, -1.746e-9
121.900, -1.746e-9
122.900, -1.745e-9
123.900, -1.745e-9
124.900, -1.743e-9
125.900, -1.743e-9
126.900, -1.743e-9
127.900, -1.743e-9
128.900, -1.743e-9
129.900, -1.742e-9
130.900, -1.742e-9
131.900, -1.742e-9
132.900, -1.740e-9
133.900, -1.741e-9
134.900, -1.740e-9
135.900, -1.739e-9
136.900, -1.739e-9
137.900, -1.738e-9
138.900, -1.739e-9
139.900, -1.738e-9
140.900, -1.737e-9
141.900, -1.738e-9
142.900, -1.737e-9
143.900, -1.737e-9
144.900, -1.736e-9
145.900, -1.736e-9
146.900, -1.736e-9
147.900, -1.735e-9
148.900, -1.735e-9
149.900, -1.735e-9
150.900, -1.734e-9
151.900, -1.734e-9
152.900, -1.733e-9
153.900, -1.733e-9
154.900, -1.732e-9
155.900, -1.730e-9
156.900, -1.731e-9
157.900, -1.730e-9
158.900, -1.730e-9
159.900, -1.730e-9
160.900, -1.729e-9
161.900, -1.729e-9
162.900, -1.728e-9
163.900, -1.728e-9
164.900, -1.728e-9
165.900, -1.728e-9
166.900, -1.728e-9
167.900, -1.728e-9
168.900, -1.727e-9
169.900, -1.727e-9
170.900, -1.726e-9
171.900, -1.726e-9
172.900, -1.726e-9
173.900, -1.725e-9
174.900, -1.726e-9
175.900, -1.724e-9
176.900, -1.725e-9
177.900, -1.725e-9
178.900, -1.724e-9
179.900, -1.725e-9
180.900, -1.724e-9
181.900, -1.723e-9
182.900, -1.723e-9
183.900, -1.722e-9
184.900, -1.723e-9
185.900, -1.722e-9
186.900, -1.722e-9
187.900, -1.722e-9
188.900, -1.720e-9
189.900, -1.721e-9
190.900, -1.720e-9
191.900, -1.719e-9
192.900, -1.720e-9
193.900, -1.719e-9
194.900, -1.719e-9
195.900, -1.719e-9
196.900, -1.718e-9
197.900, -1.719e-9
198.900, -1.718e-9
199.900, -1.719e-9
200.900, -1.718e-9
201.900, -1.718e-9
202.900, -1.717e-9
203.900, -1.718e-9
204.900, -1.717e-9
205.900, -1.717e-9
206.900, -1.717e-9
207.900, -1.716e-9
208.900, -1.716e-9
209.900, -1.715e-9
210.900, -1.715e-9
211.900, -1.715e-9
212.900, -1.714e-9
213.900, -1.714e-9
214.900, -1.714e-9
215.900, -1.714e-9
216.900, -1.715e-9
217.900, -1.713e-9
218.900, -1.714e-9
219.900, -1.713e-9
220.900, -1.712e-9
221.900, -1.713e-9
222.900, -1.712e-9
223.900, -1.713e-9
224.900, -1.713e-9
225.900, -1.712e-9
226.900, -1.713e-9
227.900, -1.712e-9
228.900, -1.712e-9
229.900, -1.713e-9
230.900, -1.712e-9
231.900, -1.713e-9
232.900, -1.712e-9
233.900, -1.712e-9
234.900, -1.712e-9
235.900, -1.711e-9
236.900, -1.712e-9
237.900, -1.711e-9
238.900, -1.712e-9
239.900, -1.712e-9
240.900, -1.710e-9
241.900, -1.711e-9
242.900, -1.710e-9
243.900, -1.710e-9
244.900, -1.710e-9
245.900, -1.709e-9
246.900, -1.709e-9
247.900, -1.709e-9
248.900, -1.709e-9
249.900, -1.710e-9
250.900, -1.709e-9
251.900, -1.709e-9
252.900, -1.709e-9
253.900, -1.708e-9
254.900, -1.708e-9
255.900, -1.707e-9
256.900, -1.707e-9
257.900, -1.707e-9
258.900, -1.707e-9
259.900, -1.707e-9
260.900, -1.706e-9
261.900, -1.707e-9
262.900, -1.706e-9
263.900, -1.705e-9
264.900, -1.706e-9
265.900, -1.705e-9
266.900, -1.705e-9
267.900, -1.705e-9
268.900, -1.703e-9
269.900, -1.704e-9
270.900, -1.704e-9
271.900, -1.704e-9
272.900, -1.704e-9
273.900, -1.703e-9
274.900, -1.704e-9
275.900, -1.703e-9
276.900, -1.703e-9
277.900, -1.703e-9
278.900, -1.702e-9
279.900, -1.703e-9
280.900, -1.703e-9
281.900, -1.702e-9
282.900, -1.702e-9
283.900, -1.701e-9
284.900, -1.702e-9
285.900, -1.702e-9
286.900, -1.702e-9
287.900, -1.702e-9
288.900, -1.702e-9
289.900, -1.702e-9
290.900, -1.702e-9
291.900, -1.701e-9
292.900, -1.701e-9
293.900, -1.701e-9
294.900, -1.700e-9
295.900, -1.701e-9
296.900, -1.700e-9
297.900, -1.700e-9
298.900, -1.700e-9
299.900, -1.699e-9
300.900, -1.699e-9
301.900, -1.698e-9
302.900, -1.698e-9
303.900, -1.699e-9
304.900, -1.698e-9
305.900, -1.698e-9
306.900, -1.698e-9
307.900, -1.698e-9
308.900, -1.698e-9
309.900, -1.697e-9
310.900, -1.698e-9
311.900, -1.697e-9
312.900, -1.697e-9
313.900, -1.697e-9
314.900, -1.697e-9
315.900, -1.697e-9
316.900, -1.697e-9
317.900, -1.697e-9
318.900, -1.697e-9
319.900, -1.696e-9
320.900, -1.696e-9
321.900, -1.696e-9
322.900, -1.696e-9
323.900, -1.696e-9
324.900, -1.695e-9
325.900, -1.696e-9
326.900, -1.696e-9
327.900, -1.695e-9
328.900, -1.696e-9
329.900, -1.695e-9
330.900, -1.696e-9
331.900, -1.696e-9
332.900, -1.695e-9
333.900, -1.695e-9
334.900, -1.694e-9
335.900, -1.693e-9
336.900, -1.693e-9
337.900, -1.692e-9
338.900, -1.693e-9
339.900, -1.694e-9
340.900, -1.694e-9
341.900, -1.695e-9
342.900, -1.694e-9
343.900, -1.694e-9
344.900, -1.694e-9
345.900, -1.693e-9
346.900, -1.694e-9
347.900, -1.693e-9
348.900, -1.693e-9
349.900, -1.693e-9
350.900, -1.691e-9
351.900, -1.692e-9
352.900, -1.691e-9
353.900, -1.691e-9
354.900, -1.691e-9
355.900, -1.689e-9
356.900, -1.690e-9
357.900, -1.689e-9
358.900, -1.690e-9
359.900, -1.690e-9
360.900, -1.689e-9
361.900, -1.690e-9
362.900, -1.689e-9
363.900, -1.689e-9
364.900, -1.690e-9
365.900, -1.688e-9
366.900, -1.689e-9
367.900, -1.688e-9
368.900, -1.688e-9
369.900, -1.689e-9
370.900, -1.688e-9
371.900, -1.689e-9
372.900, -1.688e-9
373.900, -1.688e-9
374.900, -1.688e-9
375.900, -1.687e-9
376.900, -1.688e-9
377.900, -1.687e-9
378.900, -1.687e-9
379.900, -1.688e-9
380.900, -1.687e-9
381.900, -1.688e-9
382.900, -1.688e-9
383.900, -1.687e-9
384.900, -1.687e-9
385.900, -1.686e-9
386.900, -1.686e-9
387.900, -1.686e-9
388.900, -1.685e-9
389.900, -1.686e-9
390.900, -1.685e-9
391.900, -1.685e-9
392.900, -1.685e-9
393.900, -1.684e-9
394.900, -1.684e-9
395.900, -1.683e-9
396.900, -1.683e-9
397.900, -1.683e-9
398.900, -1.681e-9
399.900, -1.682e-9
400.900, -1.681e-9
401.900, -1.681e-9
402.900, -1.679e-9
403.900, -1.680e-9
404.900, -1.678e-9
405.900, -1.678e-9
406.900, -1.677e-9
407.900, -1.676e-9
408.900, -1.675e-9
409.900, -1.673e-9
410.900, -1.672e-9
411.900, -1.671e-9
412.900, -1.670e-9
413.900, -1.669e-9
414.900, -1.667e-9
415.900, -1.666e-9
416.900, -1.664e-9
417.900, -1.661e-9
418.900, -1.660e-9
419.900, -1.656e-9
420.900, -1.654e-9
421.900, -1.650e-9
422.900, -1.646e-9
423.900, -1.642e-9
424.900, -1.637e-9
425.900, -1.632e-9
426.900, -1.626e-9
427.900, -1.617e-9
428.900, -1.610e-9
429.900, -1.600e-9
430.900, -1.589e-9
431.900, -1.576e-9
432.900, -1.560e-9
433.900, -1.542e-9
434.900, -1.517e-9
435.900, -1.487e-9
436.900, -1.450e-9
437.900, -1.403e-9
438.900, -1.346e-9
439.900, -1.264e-9
440.900, -1.158e-9
441.900, -1.023e-9
442.900, -8.359e-10
443.609, -6.451e-10
443.929, -4.573e-10
444.216, -3.495e-10
444.284, -2.989e-10
444.476, -2.741e-10
444.720, -2.628e-10
444.994, -2.557e-10
445.271, -2.506e-10
445.545, -2.475e-10
445.822, -2.428e-10
446.082, -2.391e-10
446.339, -2.363e-10
446.595, -2.322e-10
446.837, -2.306e-10
447.085, -2.274e-10
447.321, -2.247e-10
447.554, -2.233e-10
447.789, -2.204e-10
448.012, -2.190e-10
448.239, -2.173e-10
448.461, -2.152e-10
448.677, -2.133e-10
448.891, -2.102e-10
449.093, -2.090e-10
449.301, -2.072e-10
449.503, -2.053e-10
449.700, -2.047e-10
449.902, -2.021e-10
450.090, -2.009e-10
450.282, -1.997e-10
450.472, -1.977e-10
450.654, -1.972e-10
450.841, -1.954e-10
451.019, -1.945e-10
451.200, -1.934e-10
451.377, -1.916e-10
451.548, -1.906e-10
451.720, -1.887e-10
451.885, -1.872e-10
452.048, -1.863e-10
452.212, -1.842e-10
452.368, -1.839e-10
452.529, -1.820e-10
452.681, -1.811e-10
452.835, -1.805e-10
452.989, -1.788e-10
453.135, -1.791e-10
453.289, -1.783e-10
453.438, -1.770e-10
453.582, -1.769e-10
453.731, -1.748e-10
453.867, -1.740e-10
454.007, -1.724e-10
454.141, -1.708e-10
454.272, -1.705e-10
454.407, -1.686e-10
454.532, -1.678e-10
454.660, -1.671e-10
454.787, -1.653e-10
454.906, -1.649e-10
455.030, -1.640e-10
455.150, -1.634e-10
455.270, -1.631e-10
455.391, -1.619e-10
455.506, -1.624e-10
455.628, -1.614e-10
455.742, -1.605e-10
455.856, -1.610e-10
455.976, -1.596e-10
456.085, -1.596e-10
456.200, -1.589e-10
456.311, -1.577e-10
456.417, -1.577e-10
456.529, -1.563e-10
456.631, -1.561e-10
456.739, -1.556e-10
456.844, -1.548e-10
456.946, -1.549e-10
457.052, -1.535e-10
457.149, -1.536e-10
457.253, -1.531e-10
457.353, -1.522e-10
457.450, -1.528e-10
457.554, -1.518e-10
457.649, -1.516e-10
457.748, -1.517e-10
457.847, -1.507e-10
457.941, -1.513e-10
458.042, -1.509e-10
458.138, -1.509e-10
458.235, -1.512e-10
458.335, -1.503e-10
458.428, -1.511e-10
458.529, -1.502e-10
458.622, -1.500e-10
