July 24, 2026   15:36:13
Probe Approach Curve
File: 20260724_pac_negative_insulating part_1
Data Source:  Experiment
Instrument Model:  CHI920D
Header: 
Note: 

Probe E (V) = 0.45
Sensitivity (A/V) = 1e-9
End Current Ratio (%) = 25
Max Incr (um) = 1
Withdraw Dist (um) = 50
Quiet Time (sec) = 2

Distance/um, Current/A

-49.100, 3.574e-9
-48.100, 3.558e-9
-47.100, 3.552e-9
-46.100, 3.542e-9
-45.100, 3.534e-9
-44.100, 3.527e-9
-43.100, 3.517e-9
-42.100, 3.511e-9
-41.100, 3.504e-9
-40.100, 3.495e-9
-39.100, 3.490e-9
-38.100, 3.481e-9
-37.100, 3.476e-9
-36.100, 3.470e-9
-35.100, 3.461e-9
-34.100, 3.458e-9
-33.100, 3.450e-9
-32.100, 3.446e-9
-31.100, 3.441e-9
-30.100, 3.434e-9
-29.100, 3.431e-9
-28.100, 3.423e-9
-27.100, 3.420e-9
-26.100, 3.416e-9
-25.100, 3.409e-9
-24.100, 3.407e-9
-23.100, 3.400e-9
-22.100, 3.397e-9
-21.100, 3.394e-9
-20.100, 3.388e-9
-19.100, 3.387e-9
-18.100, 3.381e-9
-17.100, 3.378e-9
-16.100, 3.375e-9
-15.100, 3.368e-9
-14.100, 3.367e-9
-13.100, 3.361e-9
-12.100, 3.358e-9
-11.100, 3.355e-9
-10.100, 3.349e-9
-9.100, 3.347e-9
-8.100, 3.342e-9
-7.100, 3.339e-9
-6.100, 3.337e-9
-5.100, 3.333e-9
-4.100, 3.333e-9
-3.100, 3.329e-9
-2.100, 3.327e-9
-1.100, 3.325e-9
-0.100, 3.319e-9
0.900, 3.318e-9
1.900, 3.313e-9
2.900, 3.309e-9
3.900, 3.308e-9
4.900, 3.303e-9
5.900, 3.303e-9
6.900, 3.300e-9
7.900, 3.297e-9
8.900, 3.297e-9
9.900, 3.292e-9
10.900, 3.292e-9
11.900, 3.287e-9
12.900, 3.285e-9
13.900, 3.284e-9
14.900, 3.279e-9
15.900, 3.279e-9
16.900, 3.276e-9
17.900, 3.276e-9
18.900, 3.275e-9
19.900, 3.271e-9
20.900, 3.272e-9
21.900, 3.268e-9
22.900, 3.266e-9
23.900, 3.264e-9
24.900, 3.260e-9
25.900, 3.262e-9
26.900, 3.258e-9
27.900, 3.258e-9
28.900, 3.256e-9
29.900, 3.254e-9
30.900, 3.255e-9
31.900, 3.251e-9
32.900, 3.250e-9
33.900, 3.250e-9
34.900, 3.248e-9
35.900, 3.250e-9
36.900, 3.247e-9
37.900, 3.246e-9
38.900, 3.245e-9
39.900, 3.241e-9
40.900, 3.241e-9
41.900, 3.237e-9
42.900, 3.235e-9
43.900, 3.234e-9
44.900, 3.230e-9
45.900, 3.231e-9
46.900, 3.226e-9
47.900, 3.225e-9
48.900, 3.225e-9
49.900, 3.221e-9
50.900, 3.223e-9
51.900, 3.217e-9
52.900, 3.215e-9
53.900, 3.216e-9
54.900, 3.213e-9
55.900, 3.214e-9
56.900, 3.212e-9
57.900, 3.209e-9
58.900, 3.210e-9
59.900, 3.205e-9
60.900, 3.204e-9
61.900, 3.203e-9
62.900, 3.200e-9
63.900, 3.200e-9
64.900, 3.196e-9
65.900, 3.196e-9
66.900, 3.194e-9
67.900, 3.191e-9
68.900, 3.193e-9
69.900, 3.188e-9
70.900, 3.189e-9
71.900, 3.187e-9
72.900, 3.186e-9
73.900, 3.187e-9
74.900, 3.183e-9
75.900, 3.184e-9
76.900, 3.181e-9
77.900, 3.178e-9
78.900, 3.179e-9
79.900, 3.174e-9
80.900, 3.174e-9
81.900, 3.171e-9
82.900, 3.170e-9
83.900, 3.170e-9
84.900, 3.166e-9
85.900, 3.168e-9
86.900, 3.165e-9
87.900, 3.163e-9
88.900, 3.163e-9
89.900, 3.160e-9
90.900, 3.162e-9
91.900, 3.159e-9
92.900, 3.159e-9
93.900, 3.160e-9
94.900, 3.158e-9
95.900, 3.160e-9
96.900, 3.159e-9
97.900, 3.161e-9
98.900, 3.162e-9
99.900, 3.158e-9
100.900, 3.158e-9
101.900, 3.154e-9
102.900, 3.153e-9
103.900, 3.154e-9
104.900, 3.151e-9
105.900, 3.148e-9
106.900, 3.148e-9
107.900, 3.144e-9
108.900, 3.177e-9
109.900, 3.163e-9
110.900, 3.150e-9
111.900, 3.145e-9
112.900, 3.139e-9
113.900, 3.139e-9
114.900, 3.136e-9
115.900, 3.135e-9
116.900, 3.136e-9
117.900, 3.136e-9
118.900, 3.139e-9
119.900, 3.138e-9
120.900, 3.139e-9
121.900, 3.140e-9
122.900, 3.138e-9
123.900, 3.141e-9
124.900, 3.139e-9
125.900, 3.139e-9
126.900, 3.138e-9
127.900, 3.134e-9
128.900, 3.135e-9
129.900, 3.132e-9
130.900, 3.131e-9
131.900, 3.131e-9
132.900, 3.127e-9
133.900, 3.128e-9
134.900, 3.126e-9
135.900, 3.124e-9
136.900, 3.124e-9
137.900, 3.121e-9
138.900, 3.122e-9
139.900, 3.119e-9
140.900, 3.118e-9
141.900, 3.119e-9
142.900, 3.115e-9
143.900, 3.117e-9
144.900, 3.113e-9
145.900, 3.113e-9
146.900, 3.113e-9
147.900, 3.110e-9
148.900, 3.112e-9
149.900, 3.109e-9
150.900, 3.109e-9
151.900, 3.111e-9
152.900, 3.109e-9
153.900, 3.112e-9
154.900, 3.111e-9
155.900, 3.111e-9
156.900, 3.111e-9
157.900, 3.107e-9
158.900, 3.109e-9
159.900, 3.107e-9
160.900, 3.108e-9
161.900, 3.108e-9
162.900, 3.105e-9
163.900, 3.106e-9
164.900, 3.103e-9
165.900, 3.103e-9
166.900, 3.103e-9
167.900, 3.100e-9
168.900, 3.102e-9
169.900, 3.098e-9
170.900, 3.099e-9
171.900, 3.099e-9
172.900, 3.097e-9
173.900, 3.100e-9
174.900, 3.097e-9
175.900, 3.098e-9
176.900, 3.097e-9
177.900, 3.095e-9
178.900, 3.097e-9
179.900, 3.094e-9
180.900, 3.096e-9
181.900, 3.095e-9
182.900, 3.094e-9
183.900, 3.097e-9
184.900, 3.094e-9
185.900, 3.097e-9
186.900, 3.098e-9
187.900, 3.097e-9
188.900, 3.099e-9
189.900, 3.095e-9
190.900, 3.095e-9
191.900, 3.092e-9
192.900, 3.091e-9
193.900, 3.092e-9
194.900, 3.089e-9
195.900, 3.090e-9
196.900, 3.088e-9
197.900, 3.086e-9
198.900, 3.088e-9
199.900, 3.086e-9
200.900, 3.088e-9
201.900, 3.086e-9
202.900, 3.086e-9
203.900, 3.088e-9
204.900, 3.087e-9
205.900, 3.085e-9
206.900, 3.087e-9
207.900, 3.084e-9
208.900, 3.085e-9
209.900, 3.084e-9
210.900, 3.083e-9
211.900, 3.084e-9
212.900, 3.082e-9
213.900, 3.083e-9
214.900, 3.082e-9
215.900, 3.080e-9
216.900, 3.083e-9
217.900, 3.079e-9
218.900, 3.083e-9
219.900, 3.082e-9
220.900, 3.080e-9
221.900, 3.082e-9
222.900, 3.080e-9
223.900, 3.083e-9
224.900, 3.081e-9
225.900, 3.082e-9
226.900, 3.084e-9
227.900, 3.081e-9
228.900, 3.084e-9
229.900, 3.081e-9
230.900, 3.082e-9
231.900, 3.083e-9
232.900, 3.080e-9
233.900, 3.082e-9
234.900, 3.080e-9
235.900, 3.080e-9
236.900, 3.081e-9
237.900, 3.078e-9
238.900, 3.080e-9
239.900, 3.077e-9
240.900, 3.075e-9
241.900, 3.077e-9
242.900, 3.073e-9
243.900, 3.073e-9
244.900, 3.071e-9
245.900, 3.072e-9
246.900, 3.073e-9
247.900, 3.071e-9
248.900, 3.074e-9
249.900, 3.072e-9
250.900, 3.071e-9
251.900, 3.071e-9
252.900, 3.068e-9
253.900, 3.071e-9
254.900, 3.069e-9
255.900, 3.068e-9
256.900, 3.068e-9
257.900, 3.065e-9
258.900, 3.067e-9
259.900, 3.064e-9
260.900, 3.063e-9
261.900, 3.065e-9
262.900, 3.063e-9
263.900, 3.064e-9
264.900, 3.062e-9
265.900, 3.062e-9
266.900, 3.064e-9
267.900, 3.060e-9
268.900, 3.061e-9
269.900, 3.059e-9
270.900, 3.060e-9
271.900, 3.061e-9
272.900, 3.057e-9
273.900, 3.059e-9
274.900, 3.057e-9
275.900, 3.054e-9
276.900, 3.056e-9
277.900, 3.053e-9
278.900, 3.055e-9
279.900, 3.053e-9
280.900, 3.054e-9
281.900, 3.056e-9
282.900, 3.053e-9
283.900, 3.057e-9
284.900, 3.054e-9
285.900, 3.055e-9
286.900, 3.055e-9
287.900, 3.053e-9
288.900, 3.056e-9
289.900, 3.053e-9
290.900, 3.052e-9
291.900, 3.052e-9
292.900, 3.049e-9
293.900, 3.050e-9
294.900, 3.049e-9
295.900, 3.047e-9
296.900, 3.048e-9
297.900, 3.046e-9
298.900, 3.048e-9
299.900, 3.046e-9
300.900, 3.044e-9
301.900, 3.045e-9
302.900, 3.041e-9
303.900, 3.041e-9
304.900, 3.038e-9
305.900, 3.038e-9
306.900, 3.039e-9
307.900, 3.036e-9
308.900, 3.039e-9
309.900, 3.036e-9
310.900, 3.036e-9
311.900, 3.036e-9
312.900, 3.035e-9
313.900, 3.037e-9
314.900, 3.034e-9
315.900, 3.035e-9
316.900, 3.035e-9
317.900, 3.034e-9
318.900, 3.036e-9
319.900, 3.034e-9
320.900, 3.036e-9
321.900, 3.035e-9
322.900, 3.034e-9
323.900, 3.035e-9
324.900, 3.031e-9
325.900, 3.032e-9
326.900, 3.032e-9
327.900, 3.031e-9
328.900, 3.033e-9
329.900, 3.030e-9
330.900, 3.031e-9
331.900, 3.031e-9
332.900, 3.029e-9
333.900, 3.031e-9
334.900, 3.028e-9
335.900, 3.028e-9
336.900, 3.028e-9
337.900, 3.028e-9
338.900, 3.031e-9
339.900, 3.029e-9
340.900, 3.029e-9
341.900, 3.029e-9
342.900, 3.026e-9
343.900, 3.027e-9
344.900, 3.023e-9
345.900, 3.023e-9
346.900, 3.023e-9
347.900, 3.022e-9
348.900, 3.026e-9
349.900, 3.022e-9
350.900, 3.024e-9
351.900, 3.022e-9
352.900, 3.021e-9
353.900, 3.024e-9
354.900, 3.022e-9
355.900, 3.024e-9
356.900, 3.024e-9
357.900, 3.022e-9
358.900, 3.023e-9
359.900, 3.021e-9
360.900, 3.022e-9
361.900, 3.022e-9
362.900, 3.020e-9
363.900, 3.022e-9
364.900, 3.020e-9
365.900, 3.022e-9
366.900, 3.022e-9
367.900, 3.020e-9
368.900, 3.022e-9
369.900, 3.021e-9
370.900, 3.024e-9
371.900, 3.025e-9
372.900, 3.025e-9
373.900, 3.028e-9
374.900, 3.026e-9
375.900, 3.028e-9
376.900, 3.027e-9
377.900, 3.026e-9
378.900, 3.027e-9
379.900, 3.023e-9
380.900, 3.024e-9
381.900, 3.023e-9
382.900, 3.021e-9
383.900, 3.022e-9
384.900, 3.019e-9
385.900, 3.021e-9
386.900, 3.020e-9
387.900, 3.020e-9
388.900, 3.023e-9
389.900, 3.020e-9
390.900, 3.022e-9
391.900, 3.022e-9
392.900, 3.022e-9
393.900, 3.024e-9
394.900, 3.021e-9
395.900, 3.022e-9
396.900, 3.020e-9
397.900, 3.020e-9
398.900, 3.021e-9
399.900, 3.018e-9
400.900, 3.019e-9
401.900, 3.017e-9
402.900, 3.017e-9
403.900, 3.016e-9
404.900, 3.018e-9
405.900, 3.014e-9
406.900, 3.016e-9
407.900, 3.014e-9
408.900, 3.014e-9
409.900, 3.016e-9
410.900, 3.013e-9
411.900, 3.015e-9
412.900, 3.014e-9
413.900, 3.012e-9
414.900, 3.014e-9
415.900, 3.011e-9
416.900, 3.013e-9
417.900, 3.014e-9
418.900, 3.013e-9
419.900, 3.014e-9
420.900, 3.012e-9
421.900, 3.015e-9
422.900, 3.013e-9
423.900, 3.012e-9
424.900, 3.013e-9
425.900, 3.010e-9
426.900, 3.013e-9
427.900, 3.011e-9
428.900, 3.010e-9
429.900, 3.011e-9
430.900, 3.007e-9
431.900, 3.009e-9
432.900, 3.006e-9
433.900, 3.006e-9
434.900, 3.007e-9
435.900, 3.004e-9
436.900, 3.006e-9
437.900, 3.004e-9
438.900, 3.004e-9
439.900, 3.005e-9
440.900, 3.003e-9
441.900, 3.005e-9
442.900, 3.002e-9
443.900, 3.002e-9
444.900, 3.002e-9
445.900, 3.000e-9
446.900, 3.002e-9
447.900, 3.000e-9
448.900, 3.000e-9
449.900, 3.001e-9
450.900, 2.999e-9
451.900, 3.002e-9
452.900, 3.001e-9
453.900, 3.003e-9
454.900, 3.003e-9
455.900, 3.000e-9
456.900, 3.003e-9
457.900, 3.000e-9
458.900, 3.001e-9
459.900, 3.001e-9
460.900, 2.998e-9
461.900, 3.000e-9
462.900, 2.997e-9
463.900, 2.998e-9
464.900, 2.997e-9
465.900, 2.996e-9
466.900, 2.998e-9
467.900, 2.995e-9
468.900, 2.998e-9
469.900, 2.997e-9
470.900, 2.995e-9
471.900, 2.997e-9
472.900, 2.993e-9
473.900, 2.995e-9
474.900, 2.993e-9
475.900, 2.992e-9
476.900, 2.993e-9
477.900, 2.990e-9
478.900, 2.992e-9
479.900, 2.990e-9
480.900, 2.991e-9
481.900, 2.993e-9
482.900, 2.992e-9
483.900, 2.997e-9
484.900, 2.995e-9
485.900, 2.995e-9
486.900, 2.996e-9
487.900, 2.992e-9
488.900, 2.993e-9
489.900, 2.990e-9
490.900, 2.989e-9
491.900, 2.990e-9
492.900, 2.987e-9
493.900, 2.988e-9
494.900, 2.985e-9
495.900, 2.985e-9
496.900, 2.985e-9
497.900, 2.982e-9
498.900, 2.984e-9
499.900, 2.982e-9
500.900, 2.984e-9
501.900, 2.984e-9
502.900, 2.982e-9
503.900, 2.984e-9
504.900, 2.982e-9
505.900, 2.983e-9
506.900, 2.983e-9
507.900, 2.980e-9
508.900, 2.983e-9
509.900, 2.982e-9
510.900, 2.984e-9
511.900, 2.984e-9
512.900, 2.982e-9
513.900, 2.984e-9
514.900, 2.980e-9
515.900, 2.980e-9
516.900, 2.980e-9
517.900, 2.977e-9
518.900, 2.979e-9
519.900, 2.976e-9
520.900, 2.976e-9
521.900, 2.975e-9
522.900, 2.973e-9
523.900, 2.974e-9
524.900, 2.971e-9
525.900, 2.973e-9
526.900, 2.973e-9
527.900, 2.973e-9
528.900, 2.974e-9
529.900, 2.970e-9
530.900, 2.972e-9
531.900, 2.971e-9
532.900, 2.970e-9
533.900, 2.972e-9
534.900, 2.970e-9
535.900, 2.973e-9
536.900, 2.971e-9
537.900, 2.972e-9
538.900, 2.971e-9
539.900, 2.968e-9
540.900, 2.970e-9
541.900, 2.967e-9
542.900, 2.968e-9
543.900, 2.968e-9
544.900, 2.967e-9
545.900, 2.970e-9
546.900, 2.968e-9
547.900, 2.970e-9
548.900, 2.968e-9
549.900, 2.967e-9
550.900, 2.968e-9
551.900, 2.965e-9
552.900, 2.968e-9
553.900, 2.966e-9
554.900, 2.966e-9
555.900, 2.967e-9
556.900, 2.963e-9
557.900, 2.966e-9
558.900, 2.964e-9
559.900, 2.964e-9
560.900, 2.964e-9
561.900, 2.962e-9
562.900, 2.964e-9
563.900, 2.962e-9
564.900, 2.962e-9
565.900, 2.964e-9
566.900, 2.961e-9
567.900, 2.964e-9
568.900, 2.963e-9
569.900, 2.963e-9
570.900, 2.964e-9
571.900, 2.962e-9
572.900, 2.965e-9
573.900, 2.963e-9
574.900, 2.963e-9
575.900, 2.963e-9
576.900, 2.960e-9
577.900, 2.963e-9
578.900, 2.961e-9
579.900, 2.961e-9
580.900, 2.963e-9
581.900, 2.959e-9
582.900, 2.961e-9
583.900, 2.959e-9
584.900, 2.958e-9
585.900, 2.959e-9
586.900, 2.956e-9
587.900, 2.958e-9
588.900, 2.956e-9
589.900, 2.956e-9
590.900, 2.956e-9
591.900, 2.954e-9
592.900, 2.956e-9
593.900, 2.952e-9
594.900, 2.953e-9
595.900, 2.953e-9
596.900, 2.951e-9
597.900, 2.954e-9
598.900, 2.952e-9
599.900, 2.953e-9
600.900, 2.954e-9
601.900, 2.953e-9
602.900, 2.956e-9
603.900, 2.955e-9
604.900, 2.955e-9
605.900, 2.955e-9
606.900, 2.953e-9
607.900, 2.955e-9
608.900, 2.953e-9
609.900, 2.954e-9
610.900, 2.955e-9
611.900, 2.953e-9
612.900, 2.955e-9
613.900, 2.952e-9
614.900, 2.954e-9
615.900, 2.956e-9
616.900, 2.955e-9
617.900, 2.960e-9
618.900, 2.958e-9
619.900, 2.959e-9
620.900, 2.961e-9
621.900, 2.961e-9
622.900, 2.964e-9
623.900, 2.962e-9
624.900, 2.961e-9
625.900, 2.963e-9
626.900, 2.961e-9
627.900, 2.963e-9
628.900, 2.960e-9
629.900, 2.961e-9
630.900, 2.962e-9
631.900, 2.959e-9
632.900, 2.960e-9
633.900, 2.957e-9
634.900, 2.957e-9
635.900, 2.958e-9
636.900, 2.955e-9
637.900, 2.957e-9
638.900, 2.954e-9
639.900, 2.954e-9
640.900, 2.955e-9
641.900, 2.953e-9
642.900, 2.956e-9
643.900, 2.954e-9
644.900, 2.954e-9
645.900, 2.955e-9
646.900, 2.952e-9
647.900, 2.954e-9
648.900, 2.953e-9
649.900, 2.954e-9
650.900, 2.955e-9
651.900, 2.952e-9
652.900, 2.955e-9
653.900, 2.953e-9
654.900, 2.953e-9
655.900, 2.953e-9
656.900, 2.951e-9
657.900, 2.954e-9
658.900, 2.950e-9
659.900, 2.951e-9
660.900, 2.951e-9
661.900, 2.949e-9
662.900, 2.951e-9
663.900, 2.948e-9
664.900, 2.948e-9
665.900, 2.948e-9
666.900, 2.945e-9
667.900, 2.947e-9
668.900, 2.943e-9
669.900, 2.944e-9
670.900, 2.944e-9
671.900, 2.941e-9
672.900, 2.943e-9
673.900, 2.939e-9
674.900, 2.941e-9
675.900, 2.940e-9
676.900, 2.939e-9
677.900, 2.940e-9
678.900, 2.938e-9
679.900, 2.939e-9
680.900, 2.938e-9
681.900, 2.937e-9
682.900, 2.938e-9
683.900, 2.936e-9
684.900, 2.938e-9
685.900, 2.937e-9
686.900, 2.937e-9
687.900, 2.939e-9
688.900, 2.937e-9
689.900, 2.938e-9
690.900, 2.937e-9
691.900, 2.935e-9
692.900, 2.938e-9
693.900, 2.935e-9
694.900, 2.937e-9
695.900, 2.936e-9
696.900, 2.935e-9
697.900, 2.937e-9
698.900, 2.935e-9
699.900, 2.938e-9
700.900, 2.935e-9
701.900, 2.934e-9
702.900, 2.935e-9
703.900, 2.931e-9
704.900, 2.933e-9
705.900, 2.930e-9
706.900, 2.930e-9
707.900, 2.931e-9
708.900, 2.928e-9
709.900, 2.929e-9
710.900, 2.926e-9
711.900, 2.926e-9
712.900, 2.926e-9
713.900, 2.924e-9
714.900, 2.926e-9
715.900, 2.923e-9
716.900, 2.924e-9
717.900, 2.924e-9
718.900, 2.922e-9
719.900, 2.925e-9
720.900, 2.922e-9
721.900, 2.922e-9
722.900, 2.923e-9
723.900, 2.920e-9
724.900, 2.923e-9
725.900, 2.921e-9
726.900, 2.921e-9
727.900, 2.923e-9
728.900, 2.922e-9
729.900, 2.924e-9
730.900, 2.922e-9
731.900, 2.921e-9
732.900, 2.922e-9
733.900, 2.920e-9
734.900, 2.922e-9
735.900, 2.919e-9
736.900, 2.919e-9
737.900, 2.920e-9
738.900, 2.918e-9
739.900, 2.920e-9
740.900, 2.918e-9
741.900, 2.919e-9
742.900, 2.921e-9
743.900, 2.918e-9
744.900, 2.920e-9
745.900, 2.918e-9
746.900, 2.918e-9
747.900, 2.919e-9
748.900, 2.917e-9
749.900, 2.919e-9
750.900, 2.918e-9
751.900, 2.918e-9
752.900, 2.919e-9
753.900, 2.916e-9
754.900, 2.917e-9
755.900, 2.914e-9
756.900, 2.914e-9
757.900, 2.915e-9
758.900, 2.911e-9
759.900, 2.913e-9
760.900, 2.912e-9
761.900, 2.912e-9
762.900, 2.914e-9
763.900, 2.912e-9
764.900, 2.915e-9
765.900, 2.913e-9
766.900, 2.913e-9
767.900, 2.913e-9
768.900, 2.911e-9
769.900, 2.913e-9
770.900, 2.911e-9
771.900, 2.910e-9
772.900, 2.911e-9
773.900, 2.908e-9
774.900, 2.911e-9
775.900, 2.909e-9
776.900, 2.909e-9
777.900, 2.909e-9
778.900, 2.907e-9
779.900, 2.910e-9
780.900, 2.907e-9
781.900, 2.908e-9
782.900, 2.908e-9
783.900, 2.906e-9
784.900, 2.908e-9
785.900, 2.906e-9
786.900, 2.906e-9
787.900, 2.907e-9
788.900, 2.905e-9
789.900, 2.906e-9
790.900, 2.905e-9
791.900, 2.903e-9
792.900, 2.904e-9
793.900, 2.902e-9
794.900, 2.902e-9
795.900, 2.903e-9
796.900, 2.901e-9
797.900, 2.902e-9
798.900, 2.902e-9
799.900, 2.899e-9
800.900, 2.902e-9
801.900, 2.901e-9
802.900, 2.900e-9
803.900, 2.900e-9
804.900, 2.902e-9
805.900, 2.900e-9
806.900, 2.902e-9
807.900, 2.901e-9
808.900, 2.900e-9
809.900, 2.902e-9
810.900, 2.900e-9
811.900, 2.903e-9
812.900, 2.905e-9
813.900, 2.906e-9
814.900, 2.909e-9
815.900, 2.905e-9
816.900, 2.906e-9
817.900, 2.906e-9
818.900, 2.904e-9
819.900, 2.905e-9
820.900, 2.901e-9
821.900, 2.903e-9
822.900, 2.901e-9
823.900, 2.900e-9
824.900, 2.903e-9
825.900, 2.900e-9
826.900, 2.902e-9
827.900, 2.900e-9
828.900, 2.899e-9
829.900, 2.900e-9
830.900, 2.898e-9
831.900, 2.900e-9
832.900, 2.898e-9
833.900, 2.897e-9
834.900, 2.899e-9
835.900, 2.896e-9
836.900, 2.898e-9
837.900, 2.897e-9
838.900, 2.896e-9
839.900, 2.896e-9
840.900, 2.891e-9
841.900, 2.895e-9
842.900, 2.894e-9
843.900, 2.893e-9
844.900, 2.894e-9
845.900, 2.891e-9
846.900, 2.893e-9
847.900, 2.891e-9
848.900, 2.890e-9
849.900, 2.892e-9
850.900, 2.889e-9
851.900, 2.892e-9
852.900, 2.890e-9
853.900, 2.889e-9
854.900, 2.890e-9
855.900, 2.887e-9
856.900, 2.889e-9
857.900, 2.888e-9
858.900, 2.887e-9
859.900, 2.889e-9
860.900, 2.886e-9
861.900, 2.887e-9
862.900, 2.886e-9
863.900, 2.884e-9
864.900, 2.886e-9
865.900, 2.884e-9
866.900, 2.884e-9
867.900, 2.886e-9
868.900, 2.883e-9
869.900, 2.885e-9
870.900, 2.883e-9
871.900, 2.883e-9
872.900, 2.884e-9
873.900, 2.882e-9
874.900, 2.885e-9
875.900, 2.884e-9
876.900, 2.883e-9
877.900, 2.884e-9
878.900, 2.881e-9
879.900, 2.882e-9
880.900, 2.880e-9
881.900, 2.879e-9
882.900, 2.880e-9
883.900, 2.876e-9
884.900, 2.878e-9
885.900, 2.877e-9
886.900, 2.877e-9
887.900, 2.879e-9
888.900, 2.878e-9
889.900, 2.880e-9
890.900, 2.881e-9
891.900, 2.879e-9
892.900, 2.882e-9
893.900, 2.879e-9
894.900, 2.879e-9
895.900, 2.879e-9
896.900, 2.877e-9
897.900, 2.879e-9
898.900, 2.877e-9
899.900, 2.878e-9
900.900, 2.877e-9
901.900, 2.875e-9
902.900, 2.877e-9
903.900, 2.874e-9
904.900, 2.875e-9
905.900, 2.876e-9
906.900, 2.875e-9
907.900, 2.878e-9
908.900, 2.875e-9
909.900, 2.876e-9
910.900, 2.875e-9
911.900, 2.873e-9
912.900, 2.875e-9
913.900, 2.872e-9
914.900, 2.874e-9
915.900, 2.873e-9
916.900, 2.871e-9
917.900, 2.872e-9
918.900, 2.869e-9
919.900, 2.870e-9
920.900, 2.869e-9
921.900, 2.867e-9
922.900, 2.869e-9
923.900, 2.866e-9
924.900, 2.867e-9
925.900, 2.866e-9
926.900, 2.864e-9
927.900, 2.865e-9
928.900, 2.863e-9
929.900, 2.864e-9
930.900, 2.864e-9
931.900, 2.862e-9
932.900, 2.863e-9
933.900, 2.861e-9
934.900, 2.861e-9
935.900, 2.861e-9
936.900, 2.859e-9
937.900, 2.861e-9
938.900, 2.858e-9
939.900, 2.858e-9
940.900, 2.860e-9
941.900, 2.857e-9
942.900, 2.861e-9
943.900, 2.861e-9
944.900, 2.862e-9
945.900, 2.863e-9
946.900, 2.860e-9
947.900, 2.861e-9
948.900, 2.861e-9
949.900, 2.860e-9
950.900, 2.862e-9
951.900, 2.859e-9
952.900, 2.860e-9
953.900, 2.860e-9
954.900, 2.859e-9
955.900, 2.861e-9
956.900, 2.859e-9
957.900, 2.863e-9
958.900, 2.863e-9
959.900, 2.860e-9
960.900, 2.862e-9
961.900, 2.859e-9
962.900, 2.860e-9
963.900, 2.859e-9
964.900, 2.857e-9
965.900, 2.859e-9
966.900, 2.856e-9
967.900, 2.856e-9
968.900, 2.855e-9
969.900, 2.853e-9
970.900, 2.854e-9
971.900, 2.851e-9
972.900, 2.852e-9
973.900, 2.854e-9
974.900, 2.853e-9
975.900, 2.855e-9
976.900, 2.852e-9
977.900, 2.851e-9
978.900, 2.851e-9
979.900, 2.849e-9
980.900, 2.850e-9
981.900, 2.848e-9
982.900, 2.847e-9
983.900, 2.848e-9
984.900, 2.845e-9
985.900, 2.847e-9
986.900, 2.845e-9
987.900, 2.844e-9
988.900, 2.844e-9
989.900, 2.840e-9
990.900, 2.842e-9
991.900, 2.841e-9
992.900, 2.840e-9
993.900, 2.841e-9
994.900, 2.839e-9
995.900, 2.841e-9
996.900, 2.839e-9
997.900, 2.837e-9
998.900, 2.836e-9
999.900, 2.832e-9
1000.900, 2.831e-9
1001.900, 2.826e-9
1002.900, 2.823e-9
1003.900, 2.821e-9
1004.900, 2.815e-9
1005.900, 2.813e-9
1006.900, 2.808e-9
1007.900, 2.802e-9
1008.900, 2.799e-9
1009.900, 2.791e-9
1010.900, 2.787e-9
1011.900, 2.779e-9
1012.900, 2.770e-9
1013.900, 2.763e-9
1014.900, 2.752e-9
1015.900, 2.742e-9
1016.900, 2.729e-9
1017.900, 2.713e-9
1018.900, 2.700e-9
1019.900, 2.680e-9
1020.900, 2.660e-9
1021.900, 2.635e-9
1022.900, 2.607e-9
1023.900, 2.576e-9
1024.900, 2.536e-9
1025.900, 2.490e-9
1026.900, 2.435e-9
1027.900, 2.368e-9
1028.900, 2.294e-9
1029.900, 2.194e-9
1030.900, 2.072e-9
1031.900, 1.926e-9
1032.718, 1.760e-9
1033.304, 1.635e-9
1033.846, 1.540e-9
1034.347, 1.476e-9
1034.849, 1.434e-9
1035.350, 1.402e-9
1035.837, 1.377e-9
1036.312, 1.348e-9
1036.749, 1.327e-9
1037.177, 1.310e-9
1037.597, 1.295e-9
1038.004, 1.286e-9
1038.415, 1.273e-9
1038.800, 1.260e-9
1039.171, 1.250e-9
1039.539, 1.238e-9
1039.891, 1.234e-9
1040.253, 1.226e-9
1040.598, 1.218e-9
1040.936, 1.212e-9
1041.269, 1.203e-9
1041.586, 1.197e-9
1041.906, 1.190e-9
1042.215, 1.185e-9
1042.521, 1.182e-9
1042.827, 1.176e-9
1043.122, 1.173e-9
1043.419, 1.165e-9
1043.698, 1.156e-9
1043.963, 1.153e-9
1044.238, 1.144e-9
1044.491, 1.141e-9
1044.752, 1.137e-9
1045.009, 1.132e-9
1045.258, 1.131e-9
1045.511, 1.124e-9
1045.748, 1.118e-9
1045.978, 1.113e-9
1046.204, 1.106e-9
1046.420, 1.067e-9
1046.518, 1.026e-9
1046.567, 1.036e-9
1046.743, 1.052e-9
1046.950, 1.061e-9
1047.148, 1.067e-9
1047.349, 1.065e-9
1047.530, 1.066e-9
1047.718, 1.065e-9
1047.900, 1.062e-9
1048.073, 1.062e-9
1048.254, 1.056e-9
1048.416, 1.054e-9
1048.582, 1.051e-9
1048.746, 1.046e-9
1048.897, 1.045e-9
1049.058, 1.041e-9
1049.206, 1.039e-9
1049.356, 1.037e-9
1049.505, 1.033e-9
1049.647, 1.033e-9
1049.796, 1.029e-9
1049.931, 1.028e-9
1050.071, 1.027e-9
1050.211, 1.023e-9
1050.339, 1.022e-9
1050.475, 1.019e-9
1050.602, 1.018e-9
1050.729, 1.017e-9
1050.860, 1.012e-9
1050.975, 1.012e-9
1051.100, 1.009e-9
1051.215, 1.006e-9
1051.327, 1.005e-9
1051.444, 1.000e-9
1051.545, 9.993e-10
1051.654, 9.959e-10
1051.754, 9.922e-10
1051.850, 9.922e-10
1051.953, 9.874e-10
1052.040, 9.867e-10
1052.136, 9.839e-10
1052.224, 9.811e-10
1052.309, 9.814e-10
1052.401, 9.779e-10
1052.481, 9.776e-10
1052.568, 9.756e-10
1052.648, 9.723e-10
1052.722, 9.726e-10
1052.805, 9.678e-10
1052.870, 9.662e-10
1052.941, 9.643e-10
1053.010, 9.607e-10
1053.070, 9.599e-10
1053.135, 9.552e-10
1053.187, 9.546e-10
1053.248, 9.541e-10
1053.308, 9.503e-10
1053.356, 9.508e-10
1053.415, 9.475e-10
1053.461, 9.460e-10
1053.510, 9.437e-10
1053.554, 9.410e-10
1053.595, 9.414e-10
1053.642, 9.382e-10
1053.679, 9.374e-10
1053.720, 9.365e-10
1053.759, 9.330e-10
1053.789, 9.338e-10
1053.829, 9.306e-10
1053.857, 9.298e-10
1053.890, 9.297e-10
1053.923, 9.265e-10
1053.947, 9.278e-10
1053.981, 9.252e-10
1054.005, 9.242e-10
1054.030, 9.247e-10
1054.060, 9.215e-10
1054.077, 9.230e-10
1054.107, 9.209e-10
1054.126, 9.201e-10
1054.148, 9.211e-10
1054.175, 9.186e-10
1054.191, 9.203e-10
1054.218, 9.184e-10
1054.235, 9.171e-10
1054.252, 9.180e-10
1054.275, 9.150e-10
1054.286, 9.159e-10
1054.307, 9.145e-10
1054.321, 9.139e-10
1054.336, 9.155e-10
1054.358, 9.128e-10
1054.366, 9.138e-10
1054.385, 9.123e-10
1054.396, 9.111e-10
1054.407, 9.121e-10
1054.423, 9.089e-10
1054.428, 9.110e-10
1054.446, 9.093e-10
1054.454, 9.090e-10
1054.464, 9.098e-10
1054.478, 9.070e-10
1054.483, 9.087e-10
1054.497, 9.070e-10
1054.502, 9.068e-10
1054.510, 9.079e-10
1054.522, 9.052e-10
1054.527, 9.067e-10
1054.539, 9.045e-10
1054.544, 9.047e-10
1054.551, 9.055e-10
1054.560, 9.028e-10
1054.568, 9.046e-10
1054.578, 9.033e-10
1054.583, 9.027e-10
1054.588, 9.044e-10
1054.597, 9.021e-10
1054.606, 9.041e-10
1054.616, 9.028e-10
1054.621, 9.031e-10
1054.626, 9.048e-10
1054.636, 9.025e-10
1054.645, 9.047e-10
1054.656, 9.036e-10
1054.661, 9.027e-10
1054.666, 9.042e-10
1054.675, 9.016e-10
1054.683, 9.036e-10
1054.692, 9.021e-10
1054.700, 9.013e-10
1054.705, 9.039e-10
1054.717, 9.028e-10
1054.722, 9.049e-10
1054.732, 9.041e-10
1054.737, 9.016e-10
1054.742, 9.026e-10
1054.748, 8.998e-10
1054.754, 9.002e-10
1054.759, 8.995e-10
1054.764, 8.970e-10
