May 26, 2026   14:18:38
Probe Approach Curve
File: c:\users\secm-account\desktop\data\katarina\20260526\pacs_glass_3.txt
Data Source:  Experiment
Instrument Model:  CHI920D
Header: 
Note: 

Probe E (V) = 0.4
Sensitivity (A/V) = 1e-9
End Current Ratio (%) = 25
Max Incr (um) = 1
Withdraw Dist (um) = 50
Quiet Time (sec) = 2

Distance/um, Current/A

-49.100, -2.066e-9
-48.100, -2.051e-9
-47.100, -2.043e-9
-46.100, -2.040e-9
-45.100, -2.034e-9
-44.100, -2.031e-9
-43.100, -2.022e-9
-42.100, -2.008e-9
-41.100, -2.002e-9
-40.100, -1.994e-9
-39.100, -1.987e-9
-38.100, -1.982e-9
-37.100, -1.978e-9
-36.100, -1.973e-9
-35.100, -1.967e-9
-34.100, -1.963e-9
-33.100, -1.958e-9
-32.100, -1.953e-9
-31.100, -1.945e-9
-30.100, -1.940e-9
-29.100, -1.937e-9
-28.100, -1.934e-9
-27.100, -1.928e-9
-26.100, -1.923e-9
-25.100, -1.922e-9
-24.100, -1.918e-9
-23.100, -1.916e-9
-22.100, -1.912e-9
-21.100, -1.908e-9
-20.100, -1.907e-9
-19.100, -1.902e-9
-18.100, -1.899e-9
-17.100, -1.895e-9
-16.100, -1.891e-9
-15.100, -1.887e-9
-14.100, -1.884e-9
-13.100, -1.882e-9
-12.100, -1.879e-9
-11.100, -1.874e-9
-10.100, -1.874e-9
-9.100, -1.871e-9
-8.100, -1.869e-9
-7.100, -1.865e-9
-6.100, -1.862e-9
-5.100, -1.860e-9
-4.100, -1.855e-9
-3.100, -1.855e-9
-2.100, -1.851e-9
-1.100, -1.847e-9
-0.100, -1.845e-9
0.900, -1.843e-9
1.900, -1.842e-9
2.900, -1.843e-9
3.900, -1.839e-9
4.900, -1.838e-9
5.900, -1.834e-9
6.900, -1.833e-9
7.900, -1.831e-9
8.900, -1.829e-9
9.900, -1.829e-9
10.900, -1.827e-9
11.900, -1.824e-9
12.900, -1.825e-9
13.900, -1.822e-9
14.900, -1.822e-9
15.900, -1.818e-9
16.900, -1.814e-9
17.900, -1.814e-9
18.900, -1.812e-9
19.900, -1.811e-9
20.900, -1.811e-9
21.900, -1.808e-9
22.900, -1.807e-9
23.900, -1.804e-9
24.900, -1.803e-9
25.900, -1.802e-9
26.900, -1.799e-9
27.900, -1.798e-9
28.900, -1.797e-9
29.900, -1.795e-9
30.900, -1.794e-9
31.900, -1.790e-9
32.900, -1.790e-9
33.900, -1.789e-9
34.900, -1.789e-9
35.900, -1.789e-9
36.900, -1.787e-9
37.900, -1.783e-9
38.900, -1.782e-9
39.900, -1.780e-9
40.900, -1.779e-9
41.900, -1.777e-9
42.900, -1.776e-9
43.900, -1.775e-9
44.900, -1.773e-9
45.900, -1.774e-9
46.900, -1.773e-9
47.900, -1.772e-9
48.900, -1.772e-9
49.900, -1.770e-9
50.900, -1.769e-9
51.900, -1.767e-9
52.900, -1.765e-9
53.900, -1.765e-9
54.900, -1.763e-9
55.900, -1.763e-9
56.900, -1.762e-9
57.900, -1.760e-9
58.900, -1.759e-9
59.900, -1.757e-9
60.900, -1.755e-9
61.900, -1.755e-9
62.900, -1.755e-9
63.900, -1.754e-9
64.900, -1.755e-9
65.900, -1.752e-9
66.900, -1.751e-9
67.900, -1.750e-9
68.900, -1.749e-9
69.900, -1.749e-9
70.900, -1.747e-9
71.900, -1.747e-9
72.900, -1.745e-9
73.900, -1.741e-9
74.900, -1.741e-9
75.900, -1.741e-9
76.900, -1.742e-9
77.900, -1.741e-9
78.900, -1.740e-9
79.900, -1.741e-9
80.900, -1.739e-9
81.900, -1.739e-9
82.900, -1.740e-9
83.900, -1.738e-9
84.900, -1.738e-9
85.900, -1.737e-9
86.900, -1.736e-9
87.900, -1.735e-9
88.900, -1.733e-9
89.900, -1.733e-9
90.900, -1.732e-9
91.900, -1.731e-9
92.900, -1.731e-9
93.900, -1.728e-9
94.900, -1.727e-9
95.900, -1.726e-9
96.900, -1.726e-9
97.900, -1.726e-9
98.900, -1.725e-9
99.900, -1.724e-9
100.900, -1.725e-9
101.900, -1.724e-9
102.900, -1.723e-9
103.900, -1.723e-9
104.900, -1.722e-9
105.900, -1.722e-9
106.900, -1.720e-9
107.900, -1.719e-9
108.900, -1.719e-9
109.900, -1.718e-9
110.900, -1.717e-9
111.900, -1.717e-9
112.900, -1.715e-9
113.900, -1.714e-9
114.900, -1.713e-9
115.900, -1.714e-9
116.900, -1.714e-9
117.900, -1.713e-9
118.900, -1.714e-9
119.900, -1.710e-9
120.900, -1.709e-9
121.900, -1.708e-9
122.900, -1.707e-9
123.900, -1.708e-9
124.900, -1.708e-9
125.900, -1.706e-9
126.900, -1.707e-9
127.900, -1.706e-9
128.900, -1.704e-9
129.900, -1.704e-9
130.900, -1.703e-9
131.900, -1.702e-9
132.900, -1.701e-9
133.900, -1.701e-9
134.900, -1.702e-9
135.900, -1.701e-9
136.900, -1.699e-9
137.900, -1.700e-9
138.900, -1.698e-9
139.900, -1.700e-9
140.900, -1.699e-9
141.900, -1.699e-9
142.900, -1.699e-9
143.900, -1.699e-9
144.900, -1.700e-9
145.900, -1.697e-9
146.900, -1.697e-9
147.900, -1.696e-9
148.900, -1.694e-9
149.900, -1.695e-9
150.900, -1.694e-9
151.900, -1.694e-9
152.900, -1.693e-9
153.900, -1.693e-9
154.900, -1.693e-9
155.900, -1.690e-9
156.900, -1.690e-9
157.900, -1.690e-9
158.900, -1.687e-9
159.900, -1.687e-9
160.900, -1.686e-9
161.900, -1.687e-9
162.900, -1.688e-9
163.900, -1.685e-9
164.900, -1.686e-9
165.900, -1.684e-9
166.900, -1.685e-9
167.900, -1.685e-9
168.900, -1.684e-9
169.900, -1.684e-9
170.900, -1.682e-9
171.900, -1.682e-9
172.900, -1.683e-9
173.900, -1.682e-9
174.900, -1.682e-9
175.900, -1.681e-9
176.900, -1.681e-9
177.900, -1.682e-9
178.900, -1.680e-9
179.900, -1.680e-9
180.900, -1.680e-9
181.900, -1.679e-9
182.900, -1.681e-9
183.900, -1.679e-9
184.900, -1.679e-9
185.900, -1.678e-9
186.900, -1.677e-9
187.900, -1.678e-9
188.900, -1.677e-9
189.900, -1.677e-9
190.900, -1.677e-9
191.900, -1.676e-9
192.900, -1.676e-9
193.900, -1.675e-9
194.900, -1.675e-9
195.900, -1.675e-9
196.900, -1.675e-9
197.900, -1.675e-9
198.900, -1.674e-9
199.900, -1.673e-9
200.900, -1.673e-9
201.900, -1.671e-9
202.900, -1.670e-9
203.900, -1.671e-9
204.900, -1.669e-9
205.900, -1.669e-9
206.900, -1.670e-9
207.900, -1.668e-9
208.900, -1.670e-9
209.900, -1.669e-9
210.900, -1.667e-9
211.900, -1.667e-9
212.900, -1.667e-9
213.900, -1.667e-9
214.900, -1.667e-9
215.900, -1.666e-9
216.900, -1.666e-9
217.900, -1.665e-9
218.900, -1.666e-9
219.900, -1.666e-9
220.900, -1.666e-9
221.900, -1.666e-9
222.900, -1.665e-9
223.900, -1.664e-9
224.900, -1.663e-9
225.900, -1.662e-9
226.900, -1.663e-9
227.900, -1.662e-9
228.900, -1.662e-9
229.900, -1.662e-9
230.900, -1.661e-9
231.900, -1.662e-9
232.900, -1.661e-9
233.900, -1.661e-9
234.900, -1.661e-9
235.900, -1.660e-9
236.900, -1.660e-9
237.900, -1.660e-9
238.900, -1.659e-9
239.900, -1.659e-9
240.900, -1.657e-9
241.900, -1.659e-9
242.900, -1.657e-9
243.900, -1.656e-9
244.900, -1.656e-9
245.900, -1.655e-9
246.900, -1.657e-9
247.900, -1.656e-9
248.900, -1.655e-9
249.900, -1.657e-9
250.900, -1.655e-9
251.900, -1.656e-9
252.900, -1.657e-9
253.900, -1.654e-9
254.900, -1.654e-9
255.900, -1.652e-9
256.900, -1.653e-9
257.900, -1.654e-9
258.900, -1.651e-9
259.900, -1.651e-9
260.900, -1.650e-9
261.900, -1.650e-9
262.900, -1.652e-9
263.900, -1.650e-9
264.900, -1.651e-9
265.900, -1.649e-9
266.900, -1.649e-9
267.900, -1.650e-9
268.900, -1.649e-9
269.900, -1.650e-9
270.900, -1.649e-9
271.900, -1.650e-9
272.900, -1.650e-9
273.900, -1.649e-9
274.900, -1.651e-9
275.900, -1.650e-9
276.900, -1.650e-9
277.900, -1.649e-9
278.900, -1.647e-9
279.900, -1.647e-9
280.900, -1.646e-9
281.900, -1.646e-9
282.900, -1.646e-9
283.900, -1.645e-9
284.900, -1.646e-9
285.900, -1.646e-9
286.900, -1.646e-9
287.900, -1.646e-9
288.900, -1.645e-9
289.900, -1.646e-9
290.900, -1.644e-9
291.900, -1.644e-9
292.900, -1.642e-9
293.900, -1.641e-9
294.900, -1.643e-9
295.900, -1.643e-9
296.900, -1.643e-9
297.900, -1.644e-9
298.900, -1.642e-9
299.900, -1.643e-9
300.900, -1.644e-9
301.900, -1.642e-9
302.900, -1.644e-9
303.900, -1.641e-9
304.900, -1.639e-9
305.900, -1.639e-9
306.900, -1.637e-9
307.900, -1.638e-9
308.900, -1.638e-9
309.900, -1.638e-9
310.900, -1.640e-9
311.900, -1.640e-9
312.900, -1.641e-9
313.900, -1.640e-9
314.900, -1.640e-9
315.900, -1.640e-9
316.900, -1.639e-9
317.900, -1.639e-9
318.900, -1.639e-9
319.900, -1.639e-9
320.900, -1.639e-9
321.900, -1.637e-9
322.900, -1.636e-9
323.900, -1.636e-9
324.900, -1.636e-9
325.900, -1.637e-9
326.900, -1.636e-9
327.900, -1.637e-9
328.900, -1.637e-9
329.900, -1.636e-9
330.900, -1.637e-9
331.900, -1.636e-9
332.900, -1.636e-9
333.900, -1.636e-9
334.900, -1.635e-9
335.900, -1.636e-9
336.900, -1.635e-9
337.900, -1.634e-9
338.900, -1.634e-9
339.900, -1.633e-9
340.900, -1.633e-9
341.900, -1.632e-9
342.900, -1.631e-9
343.900, -1.631e-9
344.900, -1.631e-9
345.900, -1.631e-9
346.900, -1.630e-9
347.900, -1.629e-9
348.900, -1.631e-9
349.900, -1.630e-9
350.900, -1.631e-9
351.900, -1.630e-9
352.900, -1.630e-9
353.900, -1.631e-9
354.900, -1.630e-9
355.900, -1.630e-9
356.900, -1.629e-9
357.900, -1.629e-9
358.900, -1.629e-9
359.900, -1.629e-9
360.900, -1.629e-9
361.900, -1.627e-9
362.900, -1.626e-9
363.900, -1.626e-9
364.900, -1.625e-9
365.900, -1.624e-9
366.900, -1.626e-9
367.900, -1.624e-9
368.900, -1.625e-9
369.900, -1.626e-9
370.900, -1.624e-9
371.900, -1.624e-9
372.900, -1.623e-9
373.900, -1.625e-9
374.900, -1.624e-9
375.900, -1.624e-9
376.900, -1.625e-9
377.900, -1.624e-9
378.900, -1.624e-9
379.900, -1.625e-9
380.900, -1.623e-9
381.900, -1.624e-9
382.900, -1.622e-9
383.900, -1.624e-9
384.900, -1.625e-9
385.900, -1.624e-9
386.900, -1.624e-9
387.900, -1.624e-9
388.900, -1.623e-9
389.900, -1.626e-9
390.900, -1.625e-9
391.900, -1.626e-9
392.900, -1.625e-9
393.900, -1.624e-9
394.900, -1.622e-9
395.900, -1.620e-9
396.900, -1.621e-9
397.900, -1.621e-9
398.900, -1.621e-9
399.900, -1.622e-9
400.900, -1.621e-9
401.900, -1.622e-9
402.900, -1.622e-9
403.900, -1.621e-9
404.900, -1.619e-9
405.900, -1.620e-9
406.900, -1.618e-9
407.900, -1.618e-9
408.900, -1.618e-9
409.900, -1.616e-9
410.900, -1.616e-9
411.900, -1.615e-9
412.900, -1.615e-9
413.900, -1.617e-9
414.900, -1.615e-9
415.900, -1.616e-9
416.900, -1.617e-9
417.900, -1.616e-9
418.900, -1.616e-9
419.900, -1.615e-9
420.900, -1.615e-9
421.900, -1.615e-9
422.900, -1.614e-9
423.900, -1.615e-9
424.900, -1.614e-9
425.900, -1.614e-9
426.900, -1.614e-9
427.900, -1.613e-9
428.900, -1.615e-9
429.900, -1.616e-9
430.900, -1.615e-9
431.900, -1.615e-9
432.900, -1.615e-9
433.900, -1.615e-9
434.900, -1.614e-9
435.900, -1.614e-9
436.900, -1.615e-9
437.900, -1.614e-9
438.900, -1.613e-9
439.900, -1.613e-9
440.900, -1.611e-9
441.900, -1.611e-9
442.900, -1.609e-9
443.900, -1.608e-9
444.900, -1.607e-9
445.900, -1.607e-9
446.900, -1.609e-9
447.900, -1.609e-9
448.900, -1.609e-9
449.900, -1.608e-9
450.900, -1.607e-9
451.900, -1.609e-9
452.900, -1.609e-9
453.900, -1.610e-9
454.900, -1.610e-9
455.900, -1.608e-9
456.900, -1.609e-9
457.900, -1.608e-9
458.900, -1.609e-9
459.900, -1.609e-9
460.900, -1.608e-9
461.900, -1.609e-9
462.900, -1.609e-9
463.900, -1.608e-9
464.900, -1.609e-9
465.900, -1.608e-9
466.900, -1.607e-9
467.900, -1.607e-9
468.900, -1.606e-9
469.900, -1.607e-9
470.900, -1.605e-9
471.900, -1.604e-9
472.900, -1.605e-9
473.900, -1.603e-9
474.900, -1.604e-9
475.900, -1.604e-9
476.900, -1.604e-9
477.900, -1.605e-9
478.900, -1.605e-9
479.900, -1.606e-9
480.900, -1.606e-9
481.900, -1.605e-9
482.900, -1.607e-9
483.900, -1.605e-9
484.900, -1.606e-9
485.900, -1.605e-9
486.900, -1.603e-9
487.900, -1.604e-9
488.900, -1.603e-9
489.900, -1.604e-9
490.900, -1.605e-9
491.900, -1.604e-9
492.900, -1.605e-9
493.900, -1.605e-9
494.900, -1.604e-9
495.900, -1.604e-9
496.900, -1.603e-9
497.900, -1.604e-9
498.900, -1.603e-9
499.900, -1.603e-9
500.900, -1.604e-9
501.900, -1.602e-9
502.900, -1.602e-9
503.900, -1.601e-9
504.900, -1.600e-9
505.900, -1.600e-9
506.900, -1.599e-9
507.900, -1.599e-9
508.900, -1.601e-9
509.900, -1.600e-9
510.900, -1.600e-9
511.900, -1.600e-9
512.900, -1.599e-9
513.900, -1.599e-9
514.900, -1.597e-9
515.900, -1.597e-9
516.900, -1.597e-9
517.900, -1.596e-9
518.900, -1.597e-9
519.900, -1.597e-9
520.900, -1.598e-9
521.900, -1.595e-9
522.900, -1.592e-9
523.900, -1.592e-9
524.900, -1.592e-9
525.900, -1.593e-9
526.900, -1.593e-9
527.900, -1.593e-9
528.900, -1.593e-9
529.900, -1.593e-9
530.900, -1.594e-9
531.900, -1.594e-9
532.900, -1.593e-9
533.900, -1.593e-9
534.900, -1.592e-9
535.900, -1.593e-9
536.900, -1.594e-9
537.900, -1.593e-9
538.900, -1.594e-9
539.900, -1.594e-9
540.900, -1.595e-9
541.900, -1.595e-9
542.900, -1.593e-9
543.900, -1.593e-9
544.900, -1.593e-9
545.900, -1.592e-9
546.900, -1.593e-9
547.900, -1.592e-9
548.900, -1.591e-9
549.900, -1.591e-9
550.900, -1.591e-9
551.900, -1.592e-9
552.900, -1.589e-9
553.900, -1.589e-9
554.900, -1.590e-9
555.900, -1.588e-9
556.900, -1.589e-9
557.900, -1.589e-9
558.900, -1.589e-9
559.900, -1.590e-9
560.900, -1.590e-9
561.900, -1.591e-9
562.900, -1.592e-9
563.900, -1.590e-9
564.900, -1.591e-9
565.900, -1.590e-9
566.900, -1.590e-9
567.900, -1.590e-9
568.900, -1.588e-9
569.900, -1.590e-9
570.900, -1.590e-9
571.900, -1.589e-9
572.900, -1.590e-9
573.900, -1.589e-9
574.900, -1.589e-9
575.900, -1.588e-9
576.900, -1.589e-9
577.900, -1.589e-9
578.900, -1.588e-9
579.900, -1.589e-9
580.900, -1.589e-9
581.900, -1.588e-9
582.900, -1.589e-9
583.900, -1.588e-9
584.900, -1.588e-9
585.900, -1.588e-9
586.900, -1.588e-9
587.900, -1.589e-9
588.900, -1.588e-9
589.900, -1.589e-9
590.900, -1.588e-9
591.900, -1.587e-9
592.900, -1.588e-9
593.900, -1.586e-9
594.900, -1.587e-9
595.900, -1.588e-9
596.900, -1.586e-9
597.900, -1.586e-9
598.900, -1.585e-9
599.900, -1.587e-9
600.900, -1.587e-9
601.900, -1.586e-9
602.900, -1.587e-9
603.900, -1.586e-9
604.900, -1.586e-9
605.900, -1.587e-9
606.900, -1.586e-9
607.900, -1.587e-9
608.900, -1.586e-9
609.900, -1.586e-9
610.900, -1.586e-9
611.900, -1.586e-9
612.900, -1.587e-9
613.900, -1.586e-9
614.900, -1.585e-9
615.900, -1.587e-9
616.900, -1.585e-9
617.900, -1.587e-9
618.900, -1.585e-9
619.900, -1.585e-9
620.900, -1.585e-9
621.900, -1.583e-9
622.900, -1.584e-9
623.900, -1.583e-9
624.900, -1.582e-9
625.900, -1.583e-9
626.900, -1.583e-9
627.900, -1.583e-9
628.900, -1.582e-9
629.900, -1.582e-9
630.900, -1.582e-9
631.900, -1.581e-9
632.900, -1.582e-9
633.900, -1.582e-9
634.900, -1.582e-9
635.900, -1.584e-9
636.900, -1.584e-9
637.900, -1.584e-9
638.900, -1.584e-9
639.900, -1.581e-9
640.900, -1.581e-9
641.900, -1.581e-9
642.900, -1.581e-9
643.900, -1.581e-9
644.900, -1.581e-9
645.900, -1.582e-9
646.900, -1.582e-9
647.900, -1.582e-9
648.900, -1.582e-9
649.900, -1.582e-9
650.900, -1.583e-9
651.900, -1.583e-9
652.900, -1.582e-9
653.900, -1.582e-9
654.900, -1.581e-9
655.900, -1.581e-9
656.900, -1.582e-9
657.900, -1.581e-9
658.900, -1.582e-9
659.900, -1.582e-9
660.900, -1.582e-9
661.900, -1.582e-9
662.900, -1.581e-9
663.900, -1.582e-9
664.900, -1.582e-9
665.900, -1.582e-9
666.900, -1.582e-9
667.900, -1.582e-9
668.900, -1.584e-9
669.900, -1.583e-9
670.900, -1.582e-9
671.900, -1.584e-9
672.900, -1.583e-9
673.900, -1.583e-9
674.900, -1.583e-9
675.900, -1.582e-9
676.900, -1.582e-9
677.900, -1.582e-9
678.900, -1.583e-9
679.900, -1.583e-9
680.900, -1.583e-9
681.900, -1.584e-9
682.900, -1.584e-9
683.900, -1.584e-9
684.900, -1.585e-9
685.900, -1.584e-9
686.900, -1.584e-9
687.900, -1.584e-9
688.900, -1.584e-9
689.900, -1.584e-9
690.900, -1.582e-9
691.900, -1.583e-9
692.900, -1.583e-9
693.900, -1.584e-9
694.900, -1.585e-9
695.900, -1.584e-9
696.900, -1.586e-9
697.900, -1.587e-9
698.900, -1.587e-9
699.900, -1.587e-9
700.900, -1.586e-9
701.900, -1.586e-9
702.900, -1.585e-9
703.900, -1.585e-9
704.900, -1.586e-9
705.900, -1.585e-9
706.900, -1.586e-9
707.900, -1.585e-9
708.900, -1.585e-9
709.900, -1.586e-9
710.900, -1.585e-9
711.900, -1.585e-9
712.900, -1.585e-9
713.900, -1.585e-9
714.900, -1.585e-9
715.900, -1.583e-9
716.900, -1.584e-9
717.900, -1.584e-9
718.900, -1.584e-9
719.900, -1.585e-9
720.900, -1.584e-9
721.900, -1.583e-9
722.900, -1.584e-9
723.900, -1.582e-9
724.900, -1.584e-9
725.900, -1.582e-9
726.900, -1.582e-9
727.900, -1.583e-9
728.900, -1.581e-9
729.900, -1.581e-9
730.900, -1.580e-9
731.900, -1.580e-9
732.900, -1.580e-9
733.900, -1.580e-9
734.900, -1.580e-9
735.900, -1.580e-9
736.900, -1.581e-9
737.900, -1.581e-9
738.900, -1.580e-9
739.900, -1.581e-9
740.900, -1.581e-9
741.900, -1.581e-9
742.900, -1.582e-9
743.900, -1.580e-9
744.900, -1.582e-9
745.900, -1.582e-9
746.900, -1.580e-9
747.900, -1.582e-9
748.900, -1.581e-9
749.900, -1.581e-9
750.900, -1.582e-9
751.900, -1.580e-9
752.900, -1.579e-9
753.900, -1.578e-9
754.900, -1.578e-9
755.900, -1.579e-9
756.900, -1.577e-9
757.900, -1.579e-9
758.900, -1.578e-9
759.900, -1.578e-9
760.900, -1.579e-9
761.900, -1.577e-9
762.900, -1.578e-9
763.900, -1.578e-9
764.900, -1.578e-9
765.900, -1.579e-9
766.900, -1.578e-9
767.900, -1.578e-9
768.900, -1.578e-9
769.900, -1.577e-9
770.900, -1.579e-9
771.900, -1.577e-9
772.900, -1.575e-9
773.900, -1.575e-9
774.900, -1.572e-9
775.900, -1.572e-9
776.900, -1.571e-9
777.900, -1.571e-9
778.900, -1.571e-9
779.900, -1.571e-9
780.900, -1.572e-9
781.900, -1.572e-9
782.900, -1.572e-9
783.900, -1.573e-9
784.900, -1.572e-9
785.900, -1.574e-9
786.900, -1.573e-9
787.900, -1.572e-9
788.900, -1.573e-9
789.900, -1.572e-9
790.900, -1.574e-9
791.900, -1.572e-9
792.900, -1.571e-9
793.900, -1.573e-9
794.900, -1.570e-9
795.900, -1.571e-9
796.900, -1.571e-9
797.900, -1.571e-9
798.900, -1.572e-9
799.900, -1.571e-9
800.900, -1.571e-9
801.900, -1.570e-9
802.900, -1.569e-9
803.900, -1.569e-9
804.900, -1.569e-9
805.900, -1.567e-9
806.900, -1.568e-9
807.900, -1.567e-9
808.900, -1.567e-9
809.900, -1.568e-9
810.900, -1.566e-9
811.900, -1.568e-9
812.900, -1.567e-9
813.900, -1.567e-9
814.900, -1.568e-9
815.900, -1.568e-9
816.900, -1.566e-9
817.900, -1.565e-9
818.900, -1.565e-9
819.900, -1.566e-9
820.900, -1.565e-9
821.900, -1.567e-9
822.900, -1.566e-9
823.900, -1.566e-9
824.900, -1.567e-9
825.900, -1.565e-9
826.900, -1.566e-9
827.900, -1.567e-9
828.900, -1.566e-9
829.900, -1.566e-9
830.900, -1.565e-9
831.900, -1.565e-9
832.900, -1.566e-9
833.900, -1.564e-9
834.900, -1.564e-9
835.900, -1.564e-9
836.900, -1.564e-9
837.900, -1.565e-9
838.900, -1.564e-9
839.900, -1.564e-9
840.900, -1.564e-9
841.900, -1.564e-9
842.900, -1.565e-9
843.900, -1.564e-9
844.900, -1.564e-9
845.900, -1.564e-9
846.900, -1.563e-9
847.900, -1.564e-9
848.900, -1.563e-9
849.900, -1.562e-9
850.900, -1.563e-9
851.900, -1.561e-9
852.900, -1.562e-9
853.900, -1.562e-9
854.900, -1.562e-9
855.900, -1.561e-9
856.900, -1.560e-9
857.900, -1.561e-9
858.900, -1.560e-9
859.900, -1.560e-9
860.900, -1.560e-9
861.900, -1.559e-9
862.900, -1.560e-9
863.900, -1.559e-9
864.900, -1.559e-9
865.900, -1.560e-9
866.900, -1.559e-9
867.900, -1.560e-9
868.900, -1.559e-9
869.900, -1.559e-9
870.900, -1.560e-9
871.900, -1.559e-9
872.900, -1.560e-9
873.900, -1.560e-9
874.900, -1.560e-9
875.900, -1.560e-9
876.900, -1.559e-9
877.900, -1.560e-9
878.900, -1.559e-9
879.900, -1.558e-9
880.900, -1.558e-9
881.900, -1.558e-9
882.900, -1.559e-9
883.900, -1.558e-9
884.900, -1.557e-9
885.900, -1.559e-9
886.900, -1.558e-9
887.900, -1.559e-9
888.900, -1.559e-9
889.900, -1.557e-9
890.900, -1.558e-9
891.900, -1.557e-9
892.900, -1.557e-9
893.900, -1.558e-9
894.900, -1.557e-9
895.900, -1.558e-9
896.900, -1.556e-9
897.900, -1.557e-9
898.900, -1.559e-9
899.900, -1.557e-9
900.900, -1.558e-9
901.900, -1.559e-9
902.900, -1.558e-9
903.900, -1.559e-9
904.900, -1.558e-9
905.900, -1.558e-9
906.900, -1.559e-9
907.900, -1.559e-9
908.900, -1.558e-9
909.900, -1.558e-9
910.900, -1.558e-9
911.900, -1.558e-9
912.900, -1.557e-9
913.900, -1.559e-9
914.900, -1.559e-9
915.900, -1.559e-9
916.900, -1.560e-9
917.900, -1.560e-9
918.900, -1.561e-9
919.900, -1.559e-9
920.900, -1.559e-9
921.900, -1.560e-9
922.900, -1.558e-9
923.900, -1.557e-9
924.900, -1.557e-9
925.900, -1.557e-9
926.900, -1.558e-9
927.900, -1.556e-9
928.900, -1.558e-9
929.900, -1.557e-9
930.900, -1.557e-9
931.900, -1.557e-9
932.900, -1.557e-9
933.900, -1.558e-9
934.900, -1.557e-9
935.900, -1.556e-9
936.900, -1.557e-9
937.900, -1.557e-9
938.900, -1.556e-9
939.900, -1.555e-9
940.900, -1.555e-9
941.900, -1.557e-9
942.900, -1.556e-9
943.900, -1.557e-9
944.900, -1.557e-9
945.900, -1.556e-9
946.900, -1.557e-9
947.900, -1.557e-9
948.900, -1.557e-9
949.900, -1.557e-9
950.900, -1.556e-9
951.900, -1.556e-9
952.900, -1.556e-9
953.900, -1.557e-9
954.900, -1.558e-9
955.900, -1.556e-9
956.900, -1.557e-9
957.900, -1.556e-9
958.900, -1.557e-9
959.900, -1.558e-9
960.900, -1.556e-9
961.900, -1.557e-9
962.900, -1.556e-9
963.900, -1.556e-9
964.900, -1.555e-9
965.900, -1.554e-9
966.900, -1.555e-9
967.900, -1.554e-9
968.900, -1.555e-9
969.900, -1.555e-9
970.900, -1.554e-9
971.900, -1.556e-9
972.900, -1.554e-9
973.900, -1.554e-9
974.900, -1.555e-9
975.900, -1.554e-9
976.900, -1.555e-9
977.900, -1.555e-9
978.900, -1.554e-9
979.900, -1.555e-9
980.900, -1.554e-9
981.900, -1.554e-9
982.900, -1.554e-9
983.900, -1.552e-9
984.900, -1.554e-9
985.900, -1.553e-9
986.900, -1.553e-9
987.900, -1.552e-9
988.900, -1.552e-9
989.900, -1.553e-9
990.900, -1.552e-9
991.900, -1.554e-9
992.900, -1.554e-9
993.900, -1.553e-9
994.900, -1.553e-9
995.900, -1.552e-9
996.900, -1.552e-9
997.900, -1.552e-9
998.900, -1.551e-9
999.900, -1.552e-9
1000.900, -1.551e-9
1001.900, -1.552e-9
1002.900, -1.552e-9
1003.900, -1.552e-9
1004.900, -1.553e-9
1005.900, -1.552e-9
1006.900, -1.552e-9
1007.900, -1.552e-9
1008.900, -1.551e-9
1009.900, -1.553e-9
1010.900, -1.553e-9
1011.900, -1.553e-9
1012.900, -1.553e-9
1013.900, -1.550e-9
1014.900, -1.550e-9
1015.900, -1.550e-9
1016.900, -1.550e-9
1017.900, -1.551e-9
1018.900, -1.551e-9
1019.900, -1.551e-9
1020.900, -1.551e-9
1021.900, -1.550e-9
1022.900, -1.551e-9
1023.900, -1.550e-9
1024.900, -1.550e-9
1025.900, -1.552e-9
1026.900, -1.550e-9
1027.900, -1.550e-9
1028.900, -1.549e-9
1029.900, -1.548e-9
1030.900, -1.549e-9
1031.900, -1.548e-9
1032.900, -1.550e-9
1033.900, -1.549e-9
1034.900, -1.550e-9
1035.900, -1.550e-9
1036.900, -1.549e-9
1037.900, -1.549e-9
1038.900, -1.549e-9
1039.900, -1.549e-9
1040.900, -1.550e-9
1041.900, -1.549e-9
1042.900, -1.550e-9
1043.900, -1.549e-9
1044.900, -1.549e-9
1045.900, -1.550e-9
1046.900, -1.549e-9
1047.900, -1.549e-9
1048.900, -1.549e-9
1049.900, -1.548e-9
1050.900, -1.550e-9
1051.900, -1.548e-9
1052.900, -1.549e-9
1053.900, -1.549e-9
1054.900, -1.548e-9
1055.900, -1.549e-9
1056.900, -1.548e-9
1057.900, -1.548e-9
1058.900, -1.548e-9
1059.900, -1.547e-9
1060.900, -1.547e-9
1061.900, -1.547e-9
1062.900, -1.547e-9
1063.900, -1.547e-9
1064.900, -1.547e-9
1065.900, -1.547e-9
1066.900, -1.548e-9
1067.900, -1.547e-9
1068.900, -1.549e-9
1069.900, -1.548e-9
1070.900, -1.548e-9
1071.900, -1.549e-9
1072.900, -1.547e-9
1073.900, -1.548e-9
1074.900, -1.547e-9
1075.900, -1.546e-9
1076.900, -1.547e-9
1077.900, -1.545e-9
1078.900, -1.546e-9
1079.900, -1.544e-9
1080.900, -1.544e-9
1081.900, -1.545e-9
1082.900, -1.544e-9
1083.900, -1.545e-9
1084.900, -1.545e-9
1085.900, -1.545e-9
1086.900, -1.547e-9
1087.900, -1.546e-9
1088.900, -1.548e-9
1089.900, -1.548e-9
1090.900, -1.547e-9
1091.900, -1.548e-9
1092.900, -1.547e-9
1093.900, -1.548e-9
1094.900, -1.547e-9
1095.900, -1.545e-9
1096.900, -1.546e-9
1097.900, -1.546e-9
1098.900, -1.546e-9
1099.900, -1.547e-9
1100.900, -1.545e-9
1101.900, -1.545e-9
1102.900, -1.544e-9
1103.900, -1.543e-9
1104.900, -1.545e-9
1105.900, -1.543e-9
1106.900, -1.544e-9
1107.900, -1.544e-9
1108.900, -1.543e-9
1109.900, -1.543e-9
1110.900, -1.542e-9
1111.900, -1.542e-9
1112.900, -1.542e-9
1113.900, -1.542e-9
1114.900, -1.542e-9
1115.900, -1.541e-9
1116.900, -1.541e-9
1117.900, -1.542e-9
1118.900, -1.541e-9
1119.900, -1.542e-9
1120.900, -1.542e-9
1121.900, -1.542e-9
1122.900, -1.543e-9
1123.900, -1.542e-9
1124.900, -1.542e-9
1125.900, -1.542e-9
1126.900, -1.542e-9
1127.900, -1.543e-9
1128.900, -1.541e-9
1129.900, -1.542e-9
1130.900, -1.542e-9
1131.900, -1.540e-9
1132.900, -1.541e-9
1133.900, -1.540e-9
1134.900, -1.541e-9
1135.900, -1.541e-9
1136.900, -1.540e-9
1137.900, -1.541e-9
1138.900, -1.539e-9
1139.900, -1.540e-9
1140.900, -1.540e-9
1141.900, -1.539e-9
1142.900, -1.540e-9
1143.900, -1.539e-9
1144.900, -1.539e-9
1145.900, -1.540e-9
1146.900, -1.540e-9
1147.900, -1.540e-9
1148.900, -1.539e-9
1149.900, -1.539e-9
1150.900, -1.540e-9
1151.900, -1.539e-9
1152.900, -1.540e-9
1153.900, -1.540e-9
1154.900, -1.539e-9
1155.900, -1.540e-9
1156.900, -1.539e-9
1157.900, -1.539e-9
1158.900, -1.539e-9
1159.900, -1.538e-9
1160.900, -1.539e-9
1161.900, -1.539e-9
1162.900, -1.539e-9
1163.900, -1.539e-9
1164.900, -1.537e-9
1165.900, -1.537e-9
1166.900, -1.537e-9
1167.900, -1.537e-9
1168.900, -1.538e-9
1169.900, -1.537e-9
1170.900, -1.537e-9
1171.900, -1.536e-9
1172.900, -1.537e-9
1173.900, -1.537e-9
1174.900, -1.535e-9
1175.900, -1.536e-9
1176.900, -1.535e-9
1177.900, -1.534e-9
1178.900, -1.536e-9
1179.900, -1.535e-9
1180.900, -1.537e-9
1181.900, -1.536e-9
1182.900, -1.536e-9
1183.900, -1.538e-9
1184.900, -1.537e-9
1185.900, -1.538e-9
1186.900, -1.538e-9
1187.900, -1.537e-9
1188.900, -1.538e-9
1189.900, -1.537e-9
1190.900, -1.537e-9
1191.900, -1.536e-9
1192.900, -1.534e-9
1193.900, -1.537e-9
1194.900, -1.537e-9
1195.900, -1.537e-9
1196.900, -1.538e-9
1197.900, -1.536e-9
1198.900, -1.536e-9
1199.900, -1.535e-9
1200.900, -1.534e-9
1201.900, -1.535e-9
1202.900, -1.535e-9
1203.900, -1.536e-9
1204.900, -1.536e-9
1205.900, -1.535e-9
1206.900, -1.537e-9
1207.900, -1.534e-9
1208.900, -1.534e-9
1209.900, -1.534e-9
1210.900, -1.533e-9
1211.900, -1.534e-9
1212.900, -1.533e-9
1213.900, -1.534e-9
1214.900, -1.534e-9
1215.900, -1.532e-9
1216.900, -1.532e-9
1217.900, -1.532e-9
1218.900, -1.532e-9
1219.900, -1.534e-9
1220.900, -1.533e-9
1221.900, -1.533e-9
1222.900, -1.532e-9
1223.900, -1.533e-9
1224.900, -1.533e-9
1225.900, -1.532e-9
1226.900, -1.534e-9
1227.900, -1.534e-9
1228.900, -1.533e-9
1229.900, -1.534e-9
1230.900, -1.533e-9
1231.900, -1.533e-9
1232.900, -1.532e-9
1233.900, -1.532e-9
1234.900, -1.532e-9
1235.900, -1.531e-9
1236.900, -1.531e-9
1237.900, -1.531e-9
1238.900, -1.531e-9
1239.900, -1.532e-9
1240.900, -1.531e-9
1241.900, -1.531e-9
1242.900, -1.532e-9
1243.900, -1.532e-9
1244.900, -1.532e-9
1245.900, -1.531e-9
1246.900, -1.531e-9
1247.900, -1.531e-9
1248.900, -1.530e-9
1249.900, -1.530e-9
1250.900, -1.530e-9
1251.900, -1.530e-9
1252.900, -1.531e-9
1253.900, -1.530e-9
1254.900, -1.531e-9
1255.900, -1.531e-9
1256.900, -1.530e-9
1257.900, -1.532e-9
1258.900, -1.532e-9
1259.900, -1.532e-9
1260.900, -1.532e-9
1261.900, -1.531e-9
1262.900, -1.534e-9
1263.900, -1.531e-9
1264.900, -1.529e-9
1265.900, -1.529e-9
1266.900, -1.529e-9
1267.900, -1.530e-9
1268.900, -1.529e-9
1269.900, -1.530e-9
1270.900, -1.531e-9
1271.900, -1.530e-9
1272.900, -1.532e-9
1273.900, -1.530e-9
1274.900, -1.529e-9
1275.900, -1.528e-9
1276.900, -1.527e-9
1277.900, -1.527e-9
1278.900, -1.526e-9
1279.900, -1.526e-9
1280.900, -1.527e-9
1281.900, -1.526e-9
1282.900, -1.527e-9
1283.900, -1.527e-9
1284.900, -1.526e-9
1285.900, -1.527e-9
1286.900, -1.526e-9
1287.900, -1.527e-9
1288.900, -1.527e-9
1289.900, -1.526e-9
1290.900, -1.527e-9
1291.900, -1.526e-9
1292.900, -1.526e-9
1293.900, -1.526e-9
1294.900, -1.525e-9
1295.900, -1.526e-9
1296.900, -1.526e-9
1297.900, -1.527e-9
1298.900, -1.527e-9
1299.900, -1.526e-9
1300.900, -1.528e-9
1301.900, -1.527e-9
1302.900, -1.526e-9
1303.900, -1.526e-9
1304.900, -1.524e-9
1305.900, -1.525e-9
1306.900, -1.524e-9
1307.900, -1.525e-9
1308.900, -1.525e-9
1309.900, -1.524e-9
1310.900, -1.525e-9
1311.900, -1.523e-9
1312.900, -1.523e-9
1313.900, -1.524e-9
1314.900, -1.522e-9
1315.900, -1.523e-9
1316.900, -1.523e-9
1317.900, -1.523e-9
1318.900, -1.524e-9
1319.900, -1.524e-9
1320.900, -1.524e-9
1321.900, -1.523e-9
1322.900, -1.522e-9
1323.900, -1.522e-9
1324.900, -1.521e-9
1325.900, -1.523e-9
1326.900, -1.523e-9
1327.900, -1.524e-9
1328.900, -1.525e-9
1329.900, -1.523e-9
1330.900, -1.524e-9
1331.900, -1.523e-9
1332.900, -1.522e-9
1333.900, -1.523e-9
1334.900, -1.521e-9
1335.900, -1.521e-9
1336.900, -1.520e-9
1337.900, -1.519e-9
1338.900, -1.520e-9
1339.900, -1.519e-9
1340.900, -1.519e-9
1341.900, -1.519e-9
1342.900, -1.518e-9
1343.900, -1.519e-9
1344.900, -1.518e-9
1345.900, -1.519e-9
1346.900, -1.519e-9
1347.900, -1.519e-9
1348.900, -1.520e-9
1349.900, -1.519e-9
1350.900, -1.520e-9
1351.900, -1.520e-9
1352.900, -1.519e-9
1353.900, -1.520e-9
1354.900, -1.520e-9
1355.900, -1.519e-9
1356.900, -1.520e-9
1357.900, -1.519e-9
1358.900, -1.519e-9
1359.900, -1.519e-9
1360.900, -1.519e-9
1361.900, -1.520e-9
1362.900, -1.519e-9
1363.900, -1.519e-9
1364.900, -1.520e-9
1365.900, -1.519e-9
1366.900, -1.519e-9
1367.900, -1.518e-9
1368.900, -1.519e-9
1369.900, -1.520e-9
1370.900, -1.519e-9
1371.900, -1.519e-9
1372.900, -1.518e-9
1373.900, -1.518e-9
1374.900, -1.518e-9
1375.900, -1.517e-9
1376.900, -1.519e-9
1377.900, -1.518e-9
1378.900, -1.519e-9
1379.900, -1.520e-9
1380.900, -1.518e-9
1381.900, -1.519e-9
1382.900, -1.518e-9
1383.900, -1.519e-9
1384.900, -1.519e-9
1385.900, -1.519e-9
1386.900, -1.520e-9
1387.900, -1.520e-9
1388.900, -1.520e-9
1389.900, -1.520e-9
1390.900, -1.520e-9
1391.900, -1.520e-9
1392.900, -1.520e-9
1393.900, -1.519e-9
1394.900, -1.519e-9
1395.900, -1.518e-9
1396.900, -1.518e-9
1397.900, -1.517e-9
1398.900, -1.517e-9
1399.900, -1.518e-9
1400.900, -1.518e-9
1401.900, -1.519e-9
1402.900, -1.519e-9
1403.900, -1.518e-9
1404.900, -1.519e-9
1405.900, -1.518e-9
1406.900, -1.518e-9
1407.900, -1.518e-9
1408.900, -1.517e-9
1409.900, -1.518e-9
1410.900, -1.518e-9
1411.900, -1.517e-9
1412.900, -1.518e-9
1413.900, -1.517e-9
1414.900, -1.518e-9
1415.900, -1.517e-9
1416.900, -1.517e-9
1417.900, -1.516e-9
1418.900, -1.515e-9
1419.900, -1.515e-9
1420.900, -1.515e-9
1421.900, -1.515e-9
1422.900, -1.516e-9
1423.900, -1.516e-9
1424.900, -1.517e-9
1425.900, -1.516e-9
1426.900, -1.517e-9
1427.900, -1.517e-9
1428.900, -1.516e-9
1429.900, -1.517e-9
1430.900, -1.516e-9
1431.900, -1.516e-9
1432.900, -1.517e-9
1433.900, -1.515e-9
1434.900, -1.516e-9
1435.900, -1.515e-9
1436.900, -1.515e-9
1437.900, -1.515e-9
1438.900, -1.514e-9
1439.900, -1.514e-9
1440.900, -1.514e-9
1441.900, -1.513e-9
1442.900, -1.514e-9
1443.900, -1.514e-9
1444.900, -1.514e-9
1445.900, -1.514e-9
1446.900, -1.514e-9
1447.900, -1.515e-9
1448.900, -1.515e-9
1449.900, -1.516e-9
1450.900, -1.515e-9
1451.900, -1.514e-9
1452.900, -1.515e-9
1453.900, -1.514e-9
1454.900, -1.514e-9
1455.900, -1.514e-9
1456.900, -1.514e-9
1457.900, -1.515e-9
1458.900, -1.514e-9
1459.900, -1.514e-9
1460.900, -1.515e-9
1461.900, -1.514e-9
1462.900, -1.515e-9
1463.900, -1.514e-9
1464.900, -1.514e-9
1465.900, -1.515e-9
1466.900, -1.514e-9
1467.900, -1.516e-9
1468.900, -1.515e-9
1469.900, -1.515e-9
1470.900, -1.515e-9
1471.900, -1.514e-9
1472.900, -1.514e-9
1473.900, -1.514e-9
1474.900, -1.513e-9
1475.900, -1.513e-9
1476.900, -1.513e-9
1477.900, -1.512e-9
1478.900, -1.513e-9
1479.900, -1.512e-9
1480.900, -1.513e-9
1481.900, -1.513e-9
1482.900, -1.513e-9
1483.900, -1.513e-9
1484.900, -1.512e-9
1485.900, -1.513e-9
1486.900, -1.512e-9
1487.900, -1.513e-9
1488.900, -1.514e-9
1489.900, -1.513e-9
1490.900, -1.514e-9
1491.900, -1.514e-9
1492.900, -1.514e-9
1493.900, -1.514e-9
1494.900, -1.513e-9
1495.900, -1.514e-9
1496.900, -1.514e-9
1497.900, -1.513e-9
1498.900, -1.514e-9
1499.900, -1.513e-9
1500.900, -1.514e-9
1501.900, -1.514e-9
1502.900, -1.513e-9
1503.900, -1.514e-9
1504.900, -1.512e-9
1505.900, -1.512e-9
1506.900, -1.512e-9
1507.900, -1.510e-9
1508.900, -1.511e-9
1509.900, -1.511e-9
1510.900, -1.511e-9
1511.900, -1.511e-9
1512.900, -1.510e-9
1513.900, -1.511e-9
1514.900, -1.510e-9
1515.900, -1.509e-9
1516.900, -1.510e-9
1517.900, -1.509e-9
1518.900, -1.510e-9
1519.900, -1.510e-9
1520.900, -1.509e-9
1521.900, -1.510e-9
1522.900, -1.509e-9
1523.900, -1.509e-9
1524.900, -1.509e-9
1525.900, -1.508e-9
1526.900, -1.509e-9
1527.900, -1.509e-9
1528.900, -1.509e-9
1529.900, -1.509e-9
1530.900, -1.508e-9
1531.900, -1.510e-9
1532.900, -1.509e-9
1533.900, -1.510e-9
1534.900, -1.510e-9
1535.900, -1.509e-9
1536.900, -1.510e-9
1537.900, -1.509e-9
1538.900, -1.510e-9
1539.900, -1.510e-9
1540.900, -1.509e-9
1541.900, -1.510e-9
1542.900, -1.509e-9
1543.900, -1.509e-9
1544.900, -1.510e-9
1545.900, -1.508e-9
1546.900, -1.509e-9
1547.900, -1.508e-9
1548.900, -1.508e-9
1549.900, -1.507e-9
1550.900, -1.506e-9
1551.900, -1.506e-9
1552.900, -1.505e-9
1553.900, -1.504e-9
1554.900, -1.505e-9
1555.900, -1.504e-9
1556.900, -1.505e-9
1557.900, -1.505e-9
1558.900, -1.504e-9
1559.900, -1.505e-9
1560.900, -1.503e-9
1561.900, -1.503e-9
1562.900, -1.503e-9
1563.900, -1.502e-9
1564.900, -1.503e-9
1565.900, -1.502e-9
1566.900, -1.503e-9
1567.900, -1.502e-9
1568.900, -1.501e-9
1569.900, -1.501e-9
1570.900, -1.500e-9
1571.900, -1.500e-9
1572.900, -1.501e-9
1573.900, -1.501e-9
1574.900, -1.501e-9
1575.900, -1.501e-9
1576.900, -1.501e-9
1577.900, -1.502e-9
1578.900, -1.502e-9
1579.900, -1.502e-9
1580.900, -1.503e-9
1581.900, -1.502e-9
1582.900, -1.502e-9
1583.900, -1.500e-9
1584.900, -1.501e-9
1585.900, -1.501e-9
1586.900, -1.501e-9
1587.900, -1.501e-9
1588.900, -1.499e-9
1589.900, -1.500e-9
1590.900, -1.499e-9
1591.900, -1.499e-9
1592.900, -1.500e-9
1593.900, -1.500e-9
1594.900, -1.500e-9
1595.900, -1.500e-9
1596.900, -1.499e-9
1597.900, -1.500e-9
1598.900, -1.500e-9
1599.900, -1.500e-9
1600.900, -1.501e-9
1601.900, -1.501e-9
1602.900, -1.501e-9
1603.900, -1.501e-9
1604.900, -1.501e-9
1605.900, -1.500e-9
1606.900, -1.502e-9
1607.900, -1.502e-9
1608.900, -1.502e-9
1609.900, -1.502e-9
1610.900, -1.501e-9
1611.900, -1.502e-9
1612.900, -1.501e-9
1613.900, -1.501e-9
1614.900, -1.502e-9
1615.900, -1.501e-9
1616.900, -1.501e-9
1617.900, -1.501e-9
1618.900, -1.501e-9
1619.900, -1.502e-9
1620.900, -1.501e-9
1621.900, -1.501e-9
1622.900, -1.502e-9
1623.900, -1.500e-9
1624.900, -1.500e-9
1625.900, -1.500e-9
1626.900, -1.500e-9
1627.900, -1.501e-9
1628.900, -1.500e-9
1629.900, -1.501e-9
1630.900, -1.500e-9
1631.900, -1.499e-9
1632.900, -1.500e-9
1633.900, -1.499e-9
1634.900, -1.499e-9
1635.900, -1.499e-9
1636.900, -1.499e-9
1637.900, -1.499e-9
1638.900, -1.498e-9
1639.900, -1.499e-9
1640.900, -1.499e-9
1641.900, -1.498e-9
1642.900, -1.500e-9
1643.900, -1.499e-9
1644.900, -1.500e-9
1645.900, -1.500e-9
1646.900, -1.500e-9
1647.900, -1.500e-9
1648.900, -1.499e-9
1649.900, -1.499e-9
1650.900, -1.500e-9
1651.900, -1.498e-9
1652.900, -1.500e-9
1653.900, -1.497e-9
1654.900, -1.497e-9
1655.900, -1.497e-9
1656.900, -1.496e-9
1657.900, -1.497e-9
1658.900, -1.496e-9
1659.900, -1.496e-9
1660.900, -1.497e-9
1661.900, -1.496e-9
1662.900, -1.497e-9
1663.900, -1.498e-9
1664.900, -1.496e-9
1665.900, -1.497e-9
1666.900, -1.496e-9
1667.900, -1.496e-9
1668.900, -1.496e-9
1669.900, -1.495e-9
1670.900, -1.496e-9
1671.900, -1.495e-9
1672.900, -1.495e-9
1673.900, -1.495e-9
1674.900, -1.493e-9
1675.900, -1.494e-9
1676.900, -1.494e-9
1677.900, -1.494e-9
1678.900, -1.493e-9
1679.900, -1.493e-9
1680.900, -1.494e-9
1681.900, -1.493e-9
1682.900, -1.493e-9
1683.900, -1.494e-9
1684.900, -1.492e-9
1685.900, -1.492e-9
1686.900, -1.492e-9
1687.900, -1.492e-9
1688.900, -1.492e-9
1689.900, -1.490e-9
1690.900, -1.491e-9
1691.900, -1.492e-9
1692.900, -1.491e-9
1693.900, -1.493e-9
1694.900, -1.492e-9
1695.900, -1.492e-9
1696.900, -1.492e-9
1697.900, -1.492e-9
1698.900, -1.493e-9
1699.900, -1.491e-9
1700.900, -1.492e-9
1701.900, -1.492e-9
1702.900, -1.491e-9
1703.900, -1.492e-9
1704.900, -1.490e-9
1705.900, -1.491e-9
1706.900, -1.491e-9
1707.900, -1.490e-9
1708.900, -1.491e-9
1709.900, -1.491e-9
1710.900, -1.491e-9
1711.900, -1.492e-9
1712.900, -1.491e-9
1713.900, -1.492e-9
1714.900, -1.491e-9
1715.900, -1.491e-9
1716.900, -1.491e-9
1717.900, -1.490e-9
1718.900, -1.492e-9
1719.900, -1.491e-9
1720.900, -1.490e-9
1721.900, -1.491e-9
1722.900, -1.489e-9
1723.900, -1.491e-9
1724.900, -1.490e-9
1725.900, -1.490e-9
1726.900, -1.490e-9
1727.900, -1.489e-9
1728.900, -1.490e-9
1729.900, -1.490e-9
1730.900, -1.489e-9
1731.900, -1.491e-9
1732.900, -1.489e-9
1733.900, -1.490e-9
1734.900, -1.490e-9
1735.900, -1.489e-9
1736.900, -1.489e-9
1737.900, -1.488e-9
1738.900, -1.489e-9
1739.900, -1.489e-9
1740.900, -1.488e-9
1741.900, -1.490e-9
1742.900, -1.490e-9
1743.900, -1.490e-9
1744.900, -1.490e-9
1745.900, -1.489e-9
1746.900, -1.489e-9
1747.900, -1.489e-9
1748.900, -1.489e-9
1749.900, -1.489e-9
1750.900, -1.488e-9
1751.900, -1.489e-9
1752.900, -1.488e-9
1753.900, -1.488e-9
1754.900, -1.489e-9
1755.900, -1.488e-9
1756.900, -1.489e-9
1757.900, -1.489e-9
1758.900, -1.488e-9
1759.900, -1.488e-9
1760.900, -1.486e-9
1761.900, -1.486e-9
1762.900, -1.487e-9
1763.900, -1.485e-9
1764.900, -1.486e-9
1765.900, -1.485e-9
1766.900, -1.487e-9
1767.900, -1.486e-9
1768.900, -1.485e-9
1769.900, -1.486e-9
1770.900, -1.486e-9
1771.900, -1.486e-9
1772.900, -1.486e-9
1773.900, -1.486e-9
1774.900, -1.488e-9
1775.900, -1.485e-9
1776.900, -1.485e-9
1777.900, -1.486e-9
1778.900, -1.485e-9
1779.900, -1.486e-9
1780.900, -1.486e-9
1781.900, -1.486e-9
1782.900, -1.486e-9
1783.900, -1.486e-9
1784.900, -1.486e-9
1785.900, -1.486e-9
1786.900, -1.485e-9
1787.900, -1.486e-9
1788.900, -1.485e-9
1789.900, -1.486e-9
1790.900, -1.486e-9
1791.900, -1.484e-9
1792.900, -1.485e-9
1793.900, -1.483e-9
1794.900, -1.484e-9
1795.900, -1.485e-9
1796.900, -1.484e-9
1797.900, -1.485e-9
1798.900, -1.484e-9
1799.900, -1.485e-9
1800.900, -1.485e-9
1801.900, -1.484e-9
1802.900, -1.485e-9
1803.900, -1.484e-9
1804.900, -1.484e-9
1805.900, -1.485e-9
1806.900, -1.484e-9
1807.900, -1.485e-9
1808.900, -1.485e-9
1809.900, -1.485e-9
1810.900, -1.485e-9
1811.900, -1.484e-9
1812.900, -1.486e-9
1813.900, -1.485e-9
1814.900, -1.484e-9
1815.900, -1.485e-9
1816.900, -1.484e-9
1817.900, -1.485e-9
1818.900, -1.485e-9
1819.900, -1.485e-9
1820.900, -1.485e-9
1821.900, -1.484e-9
1822.900, -1.485e-9
1823.900, -1.485e-9
1824.900, -1.484e-9
1825.900, -1.485e-9
1826.900, -1.485e-9
1827.900, -1.486e-9
1828.900, -1.485e-9
1829.900, -1.485e-9
1830.900, -1.486e-9
1831.900, -1.484e-9
1832.900, -1.484e-9
1833.900, -1.485e-9
1834.900, -1.484e-9
1835.900, -1.486e-9
1836.900, -1.484e-9
1837.900, -1.484e-9
1838.900, -1.486e-9
1839.900, -1.484e-9
1840.900, -1.486e-9
1841.900, -1.485e-9
1842.900, -1.485e-9
1843.900, -1.487e-9
1844.900, -1.484e-9
1845.900, -1.486e-9
1846.900, -1.485e-9
1847.900, -1.485e-9
1848.900, -1.486e-9
1849.900, -1.485e-9
1850.900, -1.487e-9
1851.900, -1.486e-9
1852.900, -1.486e-9
1853.900, -1.487e-9
1854.900, -1.485e-9
1855.900, -1.487e-9
1856.900, -1.486e-9
1857.900, -1.486e-9
1858.900, -1.486e-9
1859.900, -1.485e-9
1860.900, -1.486e-9
1861.900, -1.486e-9
1862.900, -1.485e-9
1863.900, -1.485e-9
1864.900, -1.484e-9
1865.900, -1.485e-9
1866.900, -1.485e-9
1867.900, -1.484e-9
1868.900, -1.486e-9
1869.900, -1.485e-9
1870.900, -1.486e-9
1871.900, -1.486e-9
1872.900, -1.485e-9
1873.900, -1.486e-9
1874.900, -1.485e-9
1875.900, -1.485e-9
1876.900, -1.484e-9
1877.900, -1.483e-9
1878.900, -1.485e-9
1879.900, -1.484e-9
1880.900, -1.484e-9
1881.900, -1.485e-9
1882.900, -1.484e-9
1883.900, -1.485e-9
1884.900, -1.485e-9
1885.900, -1.484e-9
1886.900, -1.485e-9
1887.900, -1.484e-9
1888.900, -1.484e-9
1889.900, -1.484e-9
1890.900, -1.484e-9
1891.900, -1.485e-9
1892.900, -1.484e-9
1893.900, -1.484e-9
1894.900, -1.484e-9
1895.900, -1.482e-9
1896.900, -1.482e-9
1897.900, -1.481e-9
1898.900, -1.481e-9
1899.900, -1.481e-9
1900.900, -1.480e-9
1901.900, -1.480e-9
1902.900, -1.479e-9
1903.900, -1.478e-9
1904.900, -1.478e-9
1905.900, -1.477e-9
1906.900, -1.477e-9
1907.900, -1.475e-9
1908.900, -1.475e-9
1909.900, -1.474e-9
1910.900, -1.472e-9
1911.900, -1.472e-9
1912.900, -1.471e-9
1913.900, -1.470e-9
1914.900, -1.469e-9
1915.900, -1.466e-9
1916.900, -1.467e-9
1917.900, -1.465e-9
1918.900, -1.462e-9
1919.900, -1.459e-9
1920.900, -1.456e-9
1921.900, -1.455e-9
1922.900, -1.451e-9
1923.900, -1.446e-9
1924.900, -1.441e-9
1925.900, -1.435e-9
1926.900, -1.430e-9
1927.900, -1.423e-9
1928.900, -1.413e-9
1929.900, -1.404e-9
1930.900, -1.391e-9
1931.900, -1.376e-9
1932.900, -1.357e-9
1933.900, -1.332e-9
1934.900, -1.302e-9
1935.900, -1.264e-9
1936.900, -1.212e-9
1937.900, -1.143e-9
1938.824, -1.052e-9
1939.490, -9.334e-10
1939.826, -7.962e-10
1940.127, -6.771e-10
1940.399, -5.788e-10
1940.643, -4.696e-10
